qid,err@3,err@10,ndcg@3,ndcg@10
22939,0.110107421875,0.14165495336055756,1.0,0.8829898238182068
22941,0.2774251401424408,0.3416224420070648,0.8435737490653992,0.7310251593589783
22942,0.567138671875,0.5880032777786255,0.9225797057151794,0.833899736404419
22943,0.05078125,0.09905082732439041,0.5307212471961975,0.7649544477462769
22944,0.44921875,0.4539271891117096,0.9224036931991577,0.9633994698524475
22945,0.2774251401424408,0.3428148925304413,0.8435737490653992,0.7470523118972778
22946,0.03125,0.06332206726074219,0.29608193039894104,0.6886007785797119
22947,0.606689453125,0.629072904586792,1.0,0.9443455934524536
22948,0.706298828125,0.7093733549118042,0.871160089969635,0.892924964427948
22949,0.518798828125,0.5750687122344971,0.6967307925224304,0.873807430267334
22950,0.228759765625,0.2777877151966095,0.6461858153343201,0.6406965255737305
22951,0.304931640625,0.3566836714744568,1.0,0.9680730104446411
22952,0.968017578125,0.9680359363555908,1.0,0.8806787729263306
22953,0.606689453125,0.6366113424301147,1.0,0.975787341594696
22954,0.110107421875,0.20757120847702026,0.3333333134651184,0.6513049602508545
22955,0.518798828125,0.5485470294952393,1.0,0.9889959096908569
22956,0.560546875,0.6117173433303833,0.7653606534004211,0.8639991283416748
22957,0.25390625,0.30991774797439575,0.5692896842956543,0.7633172273635864
22958,0.212890625,0.2547479271888733,0.67329341173172,0.8265858292579651
22959,0.0625,0.0769740492105484,0.4692787230014801,0.766972005367279
22960,0.466064453125,0.538348376750946,0.5450960993766785,0.7170161604881287
22961,0.946533203125,0.9538233280181885,0.8026000261306763,0.8849679231643677
22962,0.432373046875,0.4404618442058563,0.4040961265563965,0.7082467675209045
22963,0.946533203125,0.9479881525039673,1.0,0.8919633030891418
22964,0.940673828125,0.9468687772750854,0.7038999795913696,0.8131844997406006
22965,0.110107421875,0.19145406782627106,0.3333333134651184,0.660563588142395
22966,0.1106770858168602,0.15574294328689575,0.37429505586624146,0.46026813983917236
22967,0.263671875,0.263671875,1.0,1.0
22968,0.2774251401424408,0.3385255038738251,0.8435737490653992,0.7782739400863647
22969,0.260498046875,0.3442510664463043,0.8026120662689209,0.9476170539855957
22970,0.228759765625,0.30105912685394287,0.6461858153343201,0.6919562816619873
22971,0.110107421875,0.22146087884902954,0.22686867415905,0.6320013999938965
22972,0.146728515625,0.2108093649148941,0.48975956439971924,0.7399042844772339
22973,0.967041015625,0.9675204157829285,0.9284793138504028,0.9847981333732605
22974,0.304931640625,0.35242658853530884,1.0,0.7653306722640991
22975,0.967041015625,0.9675158858299255,0.9284793138504028,0.9763016104698181
22976,0.365234375,0.458433598279953,0.3236317038536072,0.5937580466270447
22977,0.1875,0.2317139208316803,0.7262287139892578,0.9066335558891296
22978,0.166259765625,0.25908368825912476,0.32645606994628906,0.6895653605461121
22979,0.0625,0.08334359526634216,0.3631143569946289,0.5062192678451538
22980,0.567138671875,0.6027546525001526,0.7988805174827576,0.8473677039146423
22981,0.110107421875,0.13263797760009766,1.0,1.0
22982,0.1875,0.1875,1.0,1.0
22983,0.228759765625,0.302920937538147,0.6461858153343201,0.7593123316764832
22984,0.304931640625,0.35199734568595886,1.0,0.9154624938964844
22985,0.212890625,0.26386141777038574,0.67329341173172,0.8496923446655273
22986,0.939453125,0.9420921802520752,0.8987017273902893,0.8769135475158691
22987,0.304931640625,0.34561604261398315,1.0,0.8297051787376404
22988,0.08203125,0.11595448851585388,0.7039180994033813,0.7354623079299927
22989,0.12109375,0.21853291988372803,0.24055138230323792,0.5382387042045593
22990,0.03125,0.078399658203125,0.11699506640434265,0.490645170211792
22991,0.2774251401424408,0.37969690561294556,0.4175114035606384,0.7862678170204163
22992,0.956298828125,0.9582365155220032,1.0,0.9664861559867859
22993,0.146728515625,0.23226818442344666,0.48975956439971924,0.8084883093833923
22994,0.14453125,0.22614851593971252,0.5307213068008423,0.668063223361969
22995,0.556884765625,0.5754957795143127,0.9594535827636719,0.7905616164207458
22996,0.5757649540901184,0.5814362168312073,0.5708760023117065,0.7531108856201172
22997,0.962158203125,0.9623979926109314,0.9625431895256042,0.9446449279785156
22998,0.9444172978401184,0.9498224258422852,0.9456308484077454,0.9736198782920837
22999,0.110107421875,0.30645155906677246,0.11585679650306702,0.47293516993522644
23000,0.9507649540901184,0.9543269276618958,0.8898733854293823,0.9532609581947327
23001,0.962158203125,0.9626919627189636,0.8420895934104919,0.9275112748146057
23002,0.02083333395421505,0.11056692898273468,0.07821311801671982,0.5101115107536316
23003,0.560546875,0.5730090141296387,0.8838695287704468,0.8855692744255066
23004,0.943115234375,0.9504985213279724,0.819014847278595,0.9380064606666565
23005,0.9668782353401184,0.9671924114227295,0.9614850282669067,0.9753056764602661
23006,0.567138671875,0.6063153743743896,0.7988805174827576,0.8947955965995789
23007,0.606689453125,0.6497368812561035,0.6509066820144653,0.836806058883667
23008,0.304931640625,0.37491902709007263,1.0,0.953712522983551
23009,0.518798828125,0.5601881742477417,1.0,0.9325368404388428
23010,0.110107421875,0.110107421875,1.0,1.0
23011,0.518798828125,0.5826675295829773,0.6967307925224304,0.8481200337409973
23012,0.304931640625,0.3300743103027344,1.0,0.9520727396011353
23013,0.580322265625,0.6043741106987,1.0,0.8691376447677612
23014,0.212890625,0.3298943042755127,0.3493700623512268,0.6120177507400513
23015,0.05078125,0.09276159107685089,0.5307212471961975,0.6837935447692871
23016,0.091796875,0.13314858078956604,0.7653606534004211,0.7471590042114258
23017,0.659423828125,0.6631921529769897,0.8254533410072327,0.8722561001777649
23018,0.03125,0.09222197532653809,0.09869397431612015,0.34696370363235474
23019,0.9673665165901184,0.9677697420120239,1.0,0.982671320438385
23020,0.946533203125,0.9507529735565186,0.8793432712554932,0.9366834759712219
23021,0.146728515625,0.2300996035337448,0.3012597858905792,0.6141678094863892
23022,0.0625,0.10590457916259766,0.24207624793052673,0.4974607527256012
23023,0.0,0.012500000186264515,0.0,0.23719771206378937
23024,0.956298828125,0.9597088694572449,1.0,0.9849034547805786
23025,0.23046875,0.234588623046875,0.5234342813491821,0.512420117855072
23026,0.08203125,0.08203125,0.9197208285331726,0.9197208285331726
23027,0.304931640625,0.36982083320617676,1.0,1.0
23028,0.2774251401424408,0.3429816961288452,0.4175114035606384,0.5221951603889465
23029,0.304931640625,0.35843291878700256,1.0,0.801315188407898
23030,0.9507649540901184,0.9531817436218262,0.974961519241333,0.8773852586746216
23031,0.2774251401424408,0.3343409597873688,0.8435737490653992,0.8854864835739136
23032,0.197998046875,0.26184162497520447,0.6871474981307983,0.7538841366767883
23033,0.9444172978401184,0.9487954378128052,0.8315341472625732,0.8274028897285461
23034,0.946533203125,0.9481807947158813,1.0,0.9807813167572021
23035,0.9507649540901184,0.9541053175926208,0.974961519241333,0.9322946071624756
23036,0.567138671875,0.5697871446609497,1.0,0.9921161532402039
23037,0.228759765625,0.2583325505256653,1.0,0.8864440321922302
23038,0.02083333395421505,0.06523756682872772,0.09271639585494995,0.31733691692352295
23039,0.110107421875,0.14301058650016785,0.5158474445343018,0.5448035597801208
23041,0.146728515625,0.21448148787021637,0.48975956439971924,0.676977276802063
23042,0.278564453125,0.32273349165916443,0.5692896842956543,0.7148367166519165
23043,0.9668782353401184,0.9672910571098328,0.9614850282669067,0.8952531814575195
23044,0.260498046875,0.33408892154693604,0.8026120662689209,0.7698144912719727
23045,0.431884765625,0.471221387386322,0.7318407297134399,0.849274218082428
23046,0.556884765625,0.5931949615478516,0.8308104276657104,0.7726262807846069
23047,0.967041015625,0.9673619866371155,1.0,0.9917612671852112
23048,0.956298828125,0.9596447944641113,1.0,0.9910880327224731
23049,0.304931640625,0.3592365086078644,1.0,0.9361228942871094
23050,0.304931640625,0.37751758098602295,1.0,1.0
23051,0.393798828125,0.42785030603408813,0.8579513430595398,0.852254331111908
23052,0.580322265625,0.6071972846984863,1.0,0.9460095763206482
23053,0.09375,0.1302490234375,0.29608193039894104,0.4128975570201874
23054,0.4375,0.47161850333213806,0.6735438704490662,0.7535387873649597
23055,0.953369140625,0.9573192000389099,0.912726640701294,0.9832909107208252
23056,0.706298828125,0.7085950374603271,0.871160089969635,0.766528844833374
23057,0.228759765625,0.2891795039176941,0.6461858153343201,0.8409494757652283
23058,0.499755859375,0.5615715980529785,0.7271926999092102,0.8889708518981934
23059,0.940673828125,0.9472535252571106,0.8770246505737305,0.8802263736724854
23060,0.304931640625,0.35808494687080383,0.30563369393348694,0.40468132495880127
23061,0.455078125,0.5328139662742615,0.5115761756896973,0.7313289046287537
23062,0.03125,0.18852780759334564,0.04229741916060448,0.3581247329711914
23063,0.466064453125,0.5115609169006348,0.7823625802993774,0.8151080012321472
23064,0.260498046875,0.3139464557170868,0.8026120662689209,0.9372866153717041
23065,0.943115234375,0.9481926560401917,0.9313938021659851,0.9595359563827515
23066,0.9444172978401184,0.9484448432922363,0.9456308484077454,0.963283360004425
23067,0.166259765625,0.19535022974014282,0.6291344165802002,0.7766857147216797
23068,0.1106770858168602,0.1315053403377533,0.4437016248703003,0.5233939290046692
23069,0.606689453125,0.6410432457923889,1.0,0.9938993453979492
23070,0.953369140625,0.9571178555488586,1.0,0.9786157608032227
23071,0.567138671875,0.6112550497055054,0.5199966430664062,0.6170018315315247
23072,0.499755859375,0.5134801864624023,0.9037794470787048,0.9529373645782471
23073,0.393798828125,0.44099172949790955,0.8579513430595398,0.9102591872215271
23074,0.110107421875,0.17273856699466705,0.3951442539691925,0.733304500579834
23075,0.967041015625,0.9673195481300354,0.9284793138504028,0.9014958739280701
23076,0.946533203125,0.9538856744766235,0.8026000261306763,0.8954296112060547
23077,0.959228515625,0.959587037563324,0.8722942471504211,0.8712893724441528
23078,0.9507649540901184,0.9558427333831787,0.8898733854293823,0.8301033973693848
23079,0.518798828125,0.5648203492164612,1.0,0.9885308742523193
23080,0.2774251401424408,0.3149126172065735,0.8435737490653992,0.9425795674324036
23081,0.110107421875,0.1588565558195114,0.5158474445343018,0.6943559050559998
23082,0.946533203125,0.9565260410308838,0.6577322483062744,0.898293137550354
23083,0.091796875,0.097900390625,0.3948093354701996,0.3088914752006531
23084,0.091796875,0.12484169006347656,0.3948093354701996,0.6078662276268005
23085,0.940673828125,0.9462858438491821,0.771205723285675,0.7579772472381592
23086,0.488037109375,0.5432115793228149,0.7069194316864014,0.824295699596405
23087,0.940673828125,0.9453223347663879,0.7038999795913696,0.7520323991775513
23088,0.431884765625,0.476147323846817,0.7318407297134399,0.8750775456428528
23089,0.14453125,0.17287594079971313,0.6291344165802002,0.7434662580490112
23090,0.956298828125,0.9593492746353149,1.0,0.9220669269561768
23091,0.374755859375,0.41678398847579956,0.7617307901382446,0.7558053731918335
23092,0.304931640625,0.37491902709007263,1.0,0.9959547519683838
23093,0.263671875,0.341291606426239,0.4707868993282318,0.7546312808990479
23094,0.953369140625,0.9574400782585144,0.912726640701294,0.9720193147659302
23095,0.9668782353401184,0.9675961136817932,0.7810032963752747,0.9008774161338806
23096,0.197998046875,0.2378443479537964,0.6871474981307983,0.8066641092300415
23097,0.946533203125,0.9499267339706421,1.0,0.9192208647727966
23098,0.9444172978401184,0.9472339153289795,0.9456308484077454,0.9519355893135071
23099,0.1875,0.23172199726104736,0.4692787230014801,0.4639589786529541
23100,0.943359375,0.9514189958572388,0.6040917634963989,0.7734902501106262
23101,0.943115234375,0.9469509124755859,0.9313938021659851,0.9531643986701965
23102,0.166259765625,0.22281120717525482,0.5307213068008423,0.7293246388435364
23103,0.0625,0.0625,1.0,1.0
23104,0.05078125,0.06279754638671875,0.5307212471961975,0.5885987877845764
23105,0.9388020634651184,0.9438667297363281,0.7410414814949036,0.8800193667411804
23106,0.3599446713924408,0.40867847204208374,0.8075588941574097,0.8524129390716553
23107,0.02083333395421505,0.04847899079322815,0.23463936150074005,0.42690345644950867
23108,0.606689453125,0.6344796419143677,1.0,0.9181686639785767
23109,0.3599446713924408,0.4109947085380554,0.6497723460197449,0.7986046671867371
23110,0.606689453125,0.633208692073822,1.0,0.895261287689209
23111,0.1875,0.2327527403831482,0.4692787230014801,0.7675520181655884
23112,0.166259765625,0.2098618447780609,0.5307213068008423,0.6604018211364746
23113,0.606689453125,0.6333377361297607,1.0,0.8816319704055786
23114,0.393798828125,0.4558354616165161,0.5977610945701599,0.8408632278442383
23115,0.197998046875,0.2750924229621887,0.6871474981307983,0.760193407535553
23116,0.0625,0.13172046840190887,0.23463936150074005,0.4423053562641144
23117,0.05078125,0.12408018112182617,0.17690707743167877,0.4789872467517853
23118,0.556884765625,0.5898953676223755,0.8308104276657104,0.8281250596046448
23119,0.263671875,0.263671875,0.90728360414505,0.90728360414505
23120,0.2774251401424408,0.3854195773601532,0.4175114035606384,0.7019452452659607
23121,0.2774251401424408,0.33377784490585327,0.8435737490653992,0.9428360462188721
23122,0.9388020634651184,0.9408681988716125,0.8911738991737366,0.8515576720237732
23123,0.956298828125,0.9584593772888184,1.0,0.9686620831489563
23124,0.959228515625,0.9595418572425842,0.8722942471504211,0.8560013771057129
23125,0.706298828125,0.7092678546905518,0.871160089969635,0.882006824016571
23126,0.951904296875,0.9572675228118896,0.8690900206565857,0.9319833517074585
23127,0.08203125,0.10390785336494446,0.3631143569946289,0.41833969950675964
23128,0.0625,0.0625,1.0,1.0
23129,0.567138671875,0.6197488903999329,0.5199966430664062,0.7483030557632446
23130,0.619873046875,0.6228542327880859,0.6602633595466614,0.7089371085166931
23132,0.518798828125,0.5745028257369995,0.6967307925224304,0.7465687394142151
23133,0.228759765625,0.2713859975337982,0.7660098671913147,0.8659069538116455
23134,0.571533203125,0.5777906775474548,0.6093400716781616,0.7321463227272034
23135,0.05078125,0.0718710720539093,0.5307212471961975,0.5208740830421448
23136,0.197998046875,0.26445338129997253,0.6871474981307983,0.6636393070220947
23137,0.19921875,0.2606361210346222,0.3483913838863373,0.6061508655548096
23138,0.25390625,0.29759451746940613,0.5692896842956543,0.6826061010360718
23139,0.940673828125,0.9483627080917358,0.771205723285675,0.8496235013008118
23140,0.02083333395421505,0.02669270895421505,0.12103812396526337,0.19101384282112122
23141,0.2774251401424408,0.33714592456817627,0.8435737490653992,0.7577725052833557
23142,0.304931640625,0.3669155538082123,1.0,0.856411337852478
23143,0.44921875,0.5264921188354492,0.5027986764907837,0.6352290511131287
23144,0.212890625,0.3184201121330261,0.3493700623512268,0.688325822353363
23145,0.260498046875,0.3379436135292053,0.8026120662689209,0.8522490859031677
23146,0.2774251401424408,0.3213026225566864,0.8435737490653992,0.712847888469696
23148,0.0,0.0062500000931322575,0.0,0.28906482458114624
23149,0.953369140625,0.9572495222091675,0.912726640701294,0.9505499601364136
23150,0.518798828125,0.5634700655937195,0.8046129941940308,0.915124773979187
23151,0.94140625,0.9500271081924438,0.7200049757957458,0.8715440630912781
23152,0.0,0.0265066958963871,0.0,0.33063921332359314
23153,0.0,0.03351898118853569,0.0,0.366452693939209
23154,0.393798828125,0.4382794499397278,0.8579513430595398,0.8395912051200867
23155,0.304931640625,0.3680547773838043,1.0,0.9368077516555786
23156,0.946533203125,0.9564518332481384,0.7083972692489624,0.8901315331459045
23157,0.967041015625,0.9673970341682434,1.0,0.9392051100730896
23158,0.951904296875,0.9543838500976562,0.9521908760070801,0.9233130812644958
23159,0.9507649540901184,0.9531143307685852,0.974961519241333,0.9684014916419983
23160,0.110107421875,0.17643314599990845,0.3951442539691925,0.6538895964622498
23161,0.1458333432674408,0.2434881031513214,0.23463937640190125,0.5826324820518494
23162,0.953369140625,0.9579240083694458,0.912726640701294,0.7877066731452942
23163,0.260498046875,0.3284411132335663,0.8026120662689209,0.7381329536437988
23164,0.1875,0.1875,0.8262346386909485,0.8262346386909485
23165,0.304931640625,0.37751761078834534,1.0,1.0
23167,0.3599446713924408,0.4159373342990875,0.6497723460197449,0.8360688090324402
23168,0.956298828125,0.9593632817268372,1.0,1.0
23169,0.946533203125,0.9565149545669556,0.6577322483062744,0.9107666611671448
23170,0.499755859375,0.5360077023506165,0.7271926999092102,0.7165836691856384
23171,0.03125,0.03125,0.6309297680854797,0.6309297680854797
23172,0.946533203125,0.9513088464736938,1.0,0.9272295832633972
23173,0.228759765625,0.28996866941452026,0.6461858153343201,0.7562292218208313
23174,0.959228515625,0.9599260687828064,0.7631344795227051,0.9098783731460571
23175,0.03125,0.08615916222333908,0.15273310244083405,0.5667757391929626
23176,0.260498046875,0.34045594930648804,0.8026120662689209,0.8411708474159241
23177,0.499755859375,0.5581712126731873,0.7271926999092102,0.8215941190719604
23178,0.2774251401424408,0.33030062913894653,0.8435737490653992,0.9501103162765503
23179,0.946533203125,0.9532994627952576,0.8793432712554932,0.9683470726013184
23180,0.962158203125,0.9624834060668945,0.9625431895256042,0.937990128993988
23181,0.393798828125,0.40926462411880493,0.8579513430595398,0.8496958017349243
23182,0.304931640625,0.36295682191848755,1.0,0.9318115711212158
23183,0.393798828125,0.45310351252555847,0.5977610945701599,0.8536706566810608
23184,0.091796875,0.10552978515625,0.7653606534004211,0.9674680233001709
23185,0.2774251401424408,0.3192935287952423,0.8435737490653992,0.8029851913452148
23186,0.0,0.04141201451420784,0.0,0.45892515778541565
23188,0.953369140625,0.9573265314102173,0.912726640701294,0.952608048915863
23189,0.946533203125,0.9496051073074341,1.0,0.9931259155273438
23190,0.304931640625,0.3688770532608032,1.0,0.8990684151649475
23191,0.956298828125,0.96062833070755,0.8195018768310547,0.918653666973114
23193,0.518798828125,0.587618350982666,0.6967307925224304,0.9072531461715698
23194,0.499755859375,0.5279287099838257,0.7271926999092102,0.6588115096092224
23195,0.0625,0.13369128108024597,0.14433082938194275,0.42042723298072815
23196,0.05078125,0.06820487976074219,0.5307212471961975,0.7156631946563721
23197,0.03125,0.03125,0.6309297680854797,0.6309297680854797
23198,0.19921875,0.262586772441864,0.3483913838863373,0.6422750353813171
23199,0.304931640625,0.3600289821624756,1.0,0.8783188462257385
23200,0.953369140625,0.9576209783554077,0.912726640701294,0.9805529117584229
23201,0.556884765625,0.5785793662071228,0.8308104276657104,0.7589717507362366
23202,0.466064453125,0.48298248648643494,0.8656565546989441,0.9151347875595093
23203,0.967041015625,0.9674888253211975,0.8122885227203369,0.8989484310150146
23204,0.304931640625,0.3742768466472626,1.0,0.9510906934738159
23205,0.946533203125,0.953056812286377,0.8793432712554932,0.9653230309486389
23206,0.304931640625,0.3902685046195984,0.4285714626312256,0.707299530506134
23207,0.146728515625,0.23341716825962067,0.3012597858905792,0.5404022932052612
23208,0.962158203125,0.9624256491661072,0.9625431895256042,0.9320834875106812
23209,0.0625,0.0868072509765625,0.24207624793052673,0.3776576519012451
23210,0.606689453125,0.6364288926124573,0.6509066820144653,0.7487406730651855
23211,0.946533203125,0.9534164667129517,0.8026000261306763,0.9188066124916077
23212,0.466064453125,0.4932160973548889,1.0,0.9725837707519531
23213,0.488037109375,0.5202552080154419,0.8785831332206726,0.8159366250038147
23214,0.197998046875,0.23126162588596344,0.6871474981307983,0.7370409369468689
23215,0.146728515625,0.22863410413265228,0.48975956439971924,0.7134416699409485
23216,0.228759765625,0.29134511947631836,0.3198178708553314,0.492197722196579
23217,0.219970703125,0.26840418577194214,0.49370092153549194,0.586869478225708
23218,0.110107421875,0.1583201289176941,0.5158474445343018,0.7164694666862488
23219,0.0625,0.0625,1.0,1.0
23220,0.03125,0.03125,0.6309297680854797,0.6309297680854797
23221,0.166259765625,0.2522018253803253,0.5307213068008423,0.7827361822128296
23222,0.304931640625,0.3760632872581482,0.4285714626312256,0.6089740991592407
23223,0.14453125,0.21259449422359467,0.5307213068008423,0.7291781306266785
23224,0.304931640625,0.36871039867401123,1.0,0.994533896446228
23225,0.0625,0.0690104141831398,0.24207624793052673,0.3149484694004059
23226,0.9507649540901184,0.952048122882843,0.8898733854293823,0.8082283139228821
23227,0.9444172978401184,0.9488369822502136,0.9456308484077454,0.9816336631774902
23228,0.263671875,0.302751362323761,0.7653606534004211,0.7186495065689087
23229,0.197998046875,0.2768882215023041,0.42267662286758423,0.7193189263343811
23230,0.946533203125,0.9524540901184082,0.8793432712554932,0.9531298875808716
23231,0.5757650136947632,0.5793951749801636,0.763222336769104,0.782174289226532
23232,0.304931640625,0.36402982473373413,1.0,0.830696165561676
23234,0.374755859375,0.4426100254058838,0.37848135828971863,0.6116496324539185
23235,0.946533203125,0.9546099305152893,0.575423002243042,0.7194178104400635
23236,0.300537109375,0.33446797728538513,0.6655102372169495,0.7736966013908386
23237,0.499755859375,0.5674096345901489,0.7271926999092102,0.9220277070999146
23238,0.393798828125,0.4382794499397278,0.8579513430595398,0.8998250961303711
23239,0.703369140625,0.7051387429237366,0.7838867902755737,0.7375568151473999
23240,0.260498046875,0.33408892154693604,0.8026120662689209,0.8039114475250244
23241,0.659423828125,0.6625878214836121,0.8254533410072327,0.8273266553878784
23242,0.499755859375,0.5648607015609741,0.7271926999092102,0.9052383899688721
23243,0.940673828125,0.9423239827156067,1.0,0.938900887966156
23244,0.946533203125,0.9524675607681274,0.8026000261306763,0.9242727160453796
23245,0.499755859375,0.5556629300117493,0.9037794470787048,0.9726001620292664
23246,0.08984375,0.15492130815982819,0.3333333134651184,0.6726132035255432
23247,0.967041015625,0.9674184918403625,1.0,0.9500386118888855
23248,0.260498046875,0.3060612082481384,0.8026120662689209,0.8540369272232056
23249,0.110107421875,0.1462436020374298,1.0,1.0
23250,0.0625,0.12540775537490845,0.15642623603343964,0.4118192493915558
23251,0.146728515625,0.23559431731700897,0.3012597858905792,0.6356370449066162
23252,0.197998046875,0.2729435861110687,0.6871474981307983,0.8716946244239807
23253,0.518798828125,0.5538837313652039,0.8046129941940308,0.8838921189308167
23254,0.304931640625,0.3706929087638855,1.0,0.9035650491714478
23255,0.228759765625,0.25588107109069824,1.0,0.981608510017395
23256,0.02083333395421505,0.0981561467051506,0.07821311801671982,0.4205721914768219
23257,0.518798828125,0.566077470779419,1.0,0.9595922827720642
23258,0.23828125,0.23828125,0.8344475626945496,0.8344475626945496
23259,0.953369140625,0.9570184350013733,0.912726640701294,0.9465511441230774
23260,0.9466145634651184,0.9515568017959595,0.8072783350944519,0.8420100212097168
23261,0.228759765625,0.3195153474807739,0.6461858153343201,0.7474777698516846
23262,0.5694173574447632,0.5731232762336731,0.7048385143280029,0.7663997411727905
23263,0.953369140625,0.9573861360549927,0.912726640701294,0.9444420337677002
23264,0.304931640625,0.3669155538082123,1.0,0.987639844417572
23265,0.956298828125,0.9596447348594666,1.0,0.9910880327224731
23266,0.580322265625,0.6288103461265564,0.86592036485672,0.9729061126708984
23267,0.304931640625,0.3688770830631256,1.0,0.8990684151649475
23268,0.967041015625,0.9676360487937927,0.9284793138504028,0.9784739017486572
23269,0.9668782353401184,0.9675984382629395,0.7810032963752747,0.7398087382316589
23270,0.9444172978401184,0.9502720236778259,0.8315341472625732,0.9024366736412048
23271,0.967041015625,0.9675204157829285,0.9284793138504028,0.9847981333732605
23272,0.956298828125,0.9588554501533508,1.0,0.9778915643692017
23273,0.967041015625,0.9675204157829285,0.9284793138504028,0.9847981333732605
23274,0.606689453125,0.636133074760437,1.0,0.951480507850647
23275,0.946533203125,0.9538232684135437,0.8026000261306763,0.8849679231643677
23276,0.953369140625,0.957360029220581,0.912726640701294,0.9349657893180847
23277,0.967041015625,0.9675204157829285,0.9284793138504028,0.9847981333732605
23278,0.606689453125,0.6366113424301147,1.0,0.975787341594696
23279,0.947998046875,0.9510961174964905,0.9146330952644348,0.9522684216499329
23280,0.953369140625,0.9562183618545532,1.0,0.991025984287262
23281,0.953369140625,0.9573688507080078,0.912726640701294,0.8923593163490295
23282,0.9507649540901184,0.9539808630943298,0.974961519241333,0.9322972297668457
23283,0.9444172978401184,0.949165940284729,0.9456308484077454,0.9769163727760315
23284,0.967041015625,0.9675204157829285,0.9284793138504028,0.9847981333732605
23285,0.956298828125,0.9588554501533508,1.0,0.9778915643692017
23286,0.580322265625,0.627059817314148,0.86592036485672,0.6977388262748718
23287,0.304931640625,0.331580251455307,1.0,0.7335453629493713
23288,0.219970703125,0.2615892291069031,0.49370092153549194,0.49046123027801514
23289,0.44921875,0.5023739337921143,0.7216541767120361,0.7463126182556152
23290,0.499755859375,0.5633872747421265,0.629690945148468,0.6864810585975647
23291,0.166259765625,0.24001316726207733,0.22745199501514435,0.33869317173957825
23292,0.606689453125,0.6329841613769531,1.0,0.7018640637397766
23293,0.05078125,0.05078125,0.6934263706207275,0.6934263706207275
23294,0.606689453125,0.641942024230957,1.0,0.8836981654167175
23295,0.556884765625,0.5953760743141174,0.8308104276657104,0.6602898836135864
23296,0.091796875,0.20512741804122925,0.1093372330069542,0.25098326802253723
23297,0.197998046875,0.3044035732746124,0.1916866898536682,0.320692777633667
23298,0.166259765625,0.23272156715393066,0.32645606994628906,0.5042367577552795
23299,0.12109375,0.20653949677944183,0.24055138230323792,0.4378383457660675
23300,0.23828125,0.31023842096328735,0.7039180994033813,0.6875425577163696
23301,0.966796875,0.966796875,0.9799711108207703,0.9241785407066345
23302,0.5694173574447632,0.5762026309967041,0.5657033920288086,0.6926208734512329
23303,0.431884765625,0.4783560633659363,0.4763599932193756,0.5768692493438721
23304,0.212890625,0.212890625,0.28110769391059875,0.1801556944847107
23305,0.146728515625,0.20268504321575165,0.48975956439971924,0.463459312915802
23306,0.567138671875,0.6072047352790833,0.5199966430664062,0.5703584551811218
23307,0.0625,0.1347033679485321,0.15642623603343964,0.3720768690109253
23308,0.431884765625,0.4757453501224518,0.7318407297134399,0.6750693321228027
23309,0.0,0.05374658480286598,0.0,0.461568683385849
23310,0.2774251401424408,0.32619500160217285,0.4175114035606384,0.4229704737663269
23311,0.659423828125,0.6608923673629761,0.8254533410072327,0.7178779244422913
23312,0.488037109375,0.5301487445831299,0.6121358871459961,0.6186450719833374
23313,0.951904296875,0.9574556946754456,0.7122209072113037,0.6803562641143799
23314,0.393798828125,0.44216156005859375,0.5977610945701599,0.4867497682571411
23315,0.606689453125,0.637054443359375,1.0,0.8109179735183716
23316,0.2122395932674408,0.2810322642326355,0.36153164505958557,0.629357635974884
23317,0.567138671875,0.626937985420227,0.7988805174827576,0.8693202137947083
23318,0.2774251401424408,0.356442928314209,0.5188971757888794,0.7841914296150208
23319,0.946533203125,0.9523521065711975,0.8026000261306763,0.7168342471122742
23320,0.23828125,0.2992824614048004,0.30167919397354126,0.36794430017471313
23321,0.606689453125,0.6364947557449341,1.0,0.774073600769043
23322,0.166259765625,0.1939280927181244,0.6291344165802002,0.6409705877304077
23323,0.228759765625,0.2679787874221802,0.6461858153343201,0.6470096111297607
23324,0.3599446713924408,0.38718146085739136,0.5626510977745056,0.5391751527786255
23325,0.0,0.015625,0.0,0.20210735499858856
23326,0.08203125,0.08203125,0.3631143569946289,0.229233056306839
23327,0.455078125,0.4739755094051361,0.5115761756896973,0.37727996706962585
23328,0.499755859375,0.5474003553390503,0.629690945148468,0.6782875061035156
23329,0.606689453125,0.6289935111999512,1.0,0.6642923355102539
23330,0.953369140625,0.9579240083694458,0.912726640701294,0.85270756483078
23331,0.556884765625,0.5982001423835754,0.8308104276657104,0.7722042798995972
23332,0.947998046875,0.9505600929260254,0.9146330952644348,0.8000419735908508
23333,0.260498046875,0.3539336323738098,0.24530528485774994,0.4420970380306244
23334,0.0,0.0078125,0.0,0.31546488404273987
23335,0.940673828125,0.9461873769760132,0.8770246505737305,0.8903411030769348
23336,0.567138671875,0.6085339784622192,0.37281090021133423,0.3871821165084839
23337,0.450927734375,0.46261411905288696,0.3482339084148407,0.7110781669616699
23338,0.260498046875,0.3691156506538391,0.22389668226242065,0.5295944809913635
23339,0.166259765625,0.24001316726207733,0.22745199501514435,0.33869317173957825
23340,0.304931640625,0.398990273475647,0.49493172764778137,0.7945255041122437
23341,0.091796875,0.1634014993906021,0.12626707553863525,0.241507425904274
23342,0.304931640625,0.3875998556613922,0.4285714626312256,0.5424607396125793
23343,0.580322265625,0.6141610145568848,0.86592036485672,0.7682265043258667
23344,0.228759765625,0.3275889456272125,0.276936799287796,0.5649734735488892
23345,0.304931640625,0.3914368450641632,0.4285714626312256,0.5743622183799744
23346,0.499755859375,0.5500531792640686,0.629690945148468,0.7443914413452148
23347,0.94140625,0.9538263082504272,0.5162065625190735,0.7579763531684875
23348,0.606689453125,0.6360236406326294,1.0,0.8857806324958801
23349,0.23828125,0.31766122579574585,0.7039180994033813,0.7426178455352783
23350,0.957763671875,0.9581444263458252,0.8271697163581848,0.7988625764846802
23351,0.556884765625,0.6014948487281799,0.8308104276657104,0.8159449696540833
23352,0.580322265625,0.622013509273529,0.86592036485672,0.7714152932167053
23353,0.488037109375,0.5350844860076904,0.6121358871459961,0.6635235548019409
23354,0.488037109375,0.5411388278007507,0.6121358871459961,0.529643714427948
23355,0.2774251401424408,0.3539792001247406,0.8435737490653992,0.8314392566680908
23356,0.14453125,0.19723181426525116,0.5307213068008423,0.501697838306427
23357,0.1875,0.22180461883544922,0.5562983751296997,0.6201754212379456
23358,0.44921875,0.47980302572250366,0.5806522965431213,0.5961309671401978
23359,0.706298828125,0.710328221321106,0.7139173746109009,0.7685651183128357
23360,0.228759765625,0.2751615345478058,0.6461858153343201,0.7092910408973694
23361,0.2774251401424408,0.3517945408821106,0.36153164505958557,0.4729023873806
23362,0.518798828125,0.5536178350448608,1.0,0.839717447757721
23363,0.580322265625,0.6067699790000916,0.86592036485672,0.7052720189094543
23364,0.518798828125,0.5757268667221069,0.6967307925224304,0.7129881381988525
23365,0.3599446713924408,0.4117532968521118,0.5626510977745056,0.5644775032997131
23366,0.0625,0.0625,1.0,1.0
23367,0.300537109375,0.3320995569229126,0.6655102372169495,0.5551334023475647
23368,0.431884765625,0.4587852954864502,0.7318407297134399,0.657742440700531
23369,0.14453125,0.18923889100551605,0.5307213068008423,0.6383781433105469
23370,0.08203125,0.18322598934173584,0.23463936150074005,0.480112224817276
23371,0.300537109375,0.342395156621933,0.4636814594268799,0.49191105365753174
23372,0.580322265625,0.6138665676116943,0.86592036485672,0.6630591154098511
23373,0.518798828125,0.5657107830047607,0.6967307925224304,0.6458970904350281
23374,0.228759765625,0.27965325117111206,0.6461858153343201,0.5262529253959656
23375,0.968017578125,0.9680710434913635,1.0,0.8548142910003662
23376,0.5757650136947632,0.5785407423973083,0.6966133713722229,0.6550981402397156
23377,0.110107421875,0.15008802711963654,0.3333333134651184,0.4276792109012604
23378,0.110107421875,0.21716934442520142,0.1428571492433548,0.323042094707489
23379,0.197998046875,0.27779892086982727,0.29449179768562317,0.4568963646888733
23380,0.939453125,0.9444106817245483,0.8987017273902893,0.9545323848724365
23381,0.110107421875,0.16331377625465393,0.20503923296928406,0.27102169394493103
23382,0.374755859375,0.43824446201324463,0.5307213068008423,0.6236388087272644
23383,0.110107421875,0.23956866562366486,0.09298666566610336,0.39386361837387085
23384,0.344482421875,0.3791465759277344,0.5977610945701599,0.47950488328933716
23385,0.261474609375,0.32614099979400635,0.4285714626312256,0.5335079431533813
23386,0.968017578125,0.9680663347244263,1.0,0.8323543071746826
23387,0.431884765625,0.4836706221103668,0.7318407297134399,0.8363736867904663
23388,0.166259765625,0.19752928614616394,0.5307213068008423,0.5795409679412842
23389,0.0625,0.08447265625,0.1854327917098999,0.24936453998088837
23390,0.3599446713924408,0.4033774137496948,0.8075588941574097,0.8048644065856934
23391,0.197998046875,0.3141884505748749,0.29449179768562317,0.5217518210411072
23392,0.956298828125,0.9601818919181824,1.0,0.9188288450241089
23393,0.304931640625,0.304931640625,1.0,1.0
23394,0.12109375,0.21324408054351807,0.3910655975341797,0.5815389156341553
23395,0.9668782353401184,0.9673388004302979,0.892719030380249,0.8797509074211121
23396,0.946533203125,0.9500772356987,0.8026000261306763,0.6925531625747681
23397,0.518798828125,0.5821530222892761,0.6967307925224304,0.6314594745635986
23398,0.567138671875,0.6101548075675964,0.7988805174827576,0.8550558090209961
23399,0.518798828125,0.5669112801551819,0.6967307925224304,0.6168184280395508
23400,0.967041015625,0.9676885604858398,0.8122885227203369,0.9082255959510803
23401,0.14453125,0.2024582475423813,0.5307213068008423,0.5289578437805176
23402,0.939453125,0.949808657169342,0.6820816993713379,0.7159378528594971
23403,0.580322265625,0.6181151270866394,0.86592036485672,0.6895655989646912
23404,0.9673665165901184,0.9676933288574219,1.0,0.8712971806526184
23405,0.146728515625,0.2290462702512741,0.3012597858905792,0.5702888369560242
23406,0.261474609375,0.3127961754798889,0.4285714626312256,0.5318953990936279
23407,0.580322265625,0.6227578520774841,0.86592036485672,0.8324519991874695
23408,0.9673665165901184,0.967789888381958,1.0,0.9103720784187317
23409,0.09375,0.09375,0.6309297680854797,0.6309297680854797
23410,0.02083333395421505,0.08431951701641083,0.09271639585494995,0.35834529995918274
23411,0.23046875,0.2473602294921875,0.47306913137435913,0.3520256578922272
23412,0.02083333395421505,0.09050767868757248,0.04811027646064758,0.2466539442539215
23413,0.606689453125,0.635713517665863,1.0,0.7970394492149353
23414,0.556884765625,0.6191298961639404,0.5407800078392029,0.637017548084259
23415,0.228759765625,0.279985249042511,0.6461858153343201,0.6241481900215149
23416,0.21875,0.2677132785320282,0.42495885491371155,0.4779634177684784
23417,0.300537109375,0.37044665217399597,0.4636814594268799,0.5745784044265747
23418,0.490234375,0.5648305416107178,0.5961710214614868,0.6806314587593079
23419,0.659423828125,0.6627814173698425,0.6764605641365051,0.6821992993354797
23420,0.560546875,0.560546875,1.0,1.0
23421,0.228759765625,0.25779134035110474,0.6461858153343201,0.5380445122718811
23422,0.146728515625,0.20003628730773926,0.2098969668149948,0.22961555421352386
23423,0.946533203125,0.9526390433311462,0.6577322483062744,0.589145839214325
23424,0.499755859375,0.5760191679000854,0.4098700284957886,0.4524112641811371
23425,0.431884765625,0.46542900800704956,0.7318407297134399,0.571753203868866
23426,0.706298828125,0.7091827392578125,0.871160089969635,0.7530439496040344
23427,0.263671875,0.3556799292564392,0.32801172137260437,0.4682157635688782
23428,0.260498046875,0.3295174837112427,0.49370092153549194,0.585705578327179
23429,0.08203125,0.13648903369903564,0.23463936150074005,0.33448493480682373
23430,0.580322265625,0.6043778657913208,0.86592036485672,0.5451719760894775
23431,0.0625,0.08870887756347656,0.3631143569946289,0.39769622683525085
23432,0.12109375,0.17509682476520538,0.3910655975341797,0.4059048295021057
23433,0.0,0.18798828125,0.0,0.26425454020500183
23434,0.966796875,0.9677270650863647,0.7653606534004211,0.8256151676177979
23435,0.374755859375,0.43080154061317444,0.5307213068008423,0.4645620286464691
23436,0.518798828125,0.5722923874855042,0.6967307925224304,0.6828129887580872
23437,0.05078125,0.13756299018859863,0.17690707743167877,0.41316649317741394
23438,0.393798828125,0.44162458181381226,0.5977610945701599,0.5934928059577942
23439,0.0,0.0,0.0,0.0
23440,0.393798828125,0.4499970078468323,0.38908666372299194,0.5044350028038025
23441,0.197998046875,0.2577038109302521,0.29449179768562317,0.3993722200393677
23442,0.556884765625,0.6020083427429199,0.3877114951610565,0.44885820150375366
23443,0.110107421875,0.1866217851638794,0.16497723758220673,0.3358461856842041
23444,0.956298828125,0.9602372050285339,1.0,0.9374551177024841
23445,0.197998046875,0.2820633351802826,0.29449179768562317,0.46494802832603455
23446,0.951904296875,0.9555875062942505,0.9521908760070801,0.8843901753425598
23447,0.3599446713924408,0.4503069519996643,0.36623337864875793,0.5909230709075928
23448,0.953369140625,0.9588530659675598,0.7479812502861023,0.7297089695930481
23449,0.374755859375,0.4334207773208618,0.6128985285758972,0.711816668510437
23450,0.03125,0.06626565009355545,0.09869397431612015,0.2294778823852539
23451,0.9444172978401184,0.9511604905128479,0.6219719052314758,0.6480210423469543
23452,0.9444172978401184,0.9533024430274963,0.7589633464813232,0.7440369725227356
23453,0.567138671875,0.5858122706413269,0.7988805174827576,0.6765704154968262
23454,0.03125,0.10104876756668091,0.15273310244083405,0.5739955306053162
23455,0.490234375,0.561988353729248,0.5961710214614868,0.5898342132568359
23456,0.16796875,0.2315274477005005,0.3198178708553314,0.4439755380153656
23457,0.556884765625,0.5970497727394104,0.8308104276657104,0.7163268327713013
23458,0.951904296875,0.9563709497451782,0.7122209072113037,0.5690912008285522
23459,0.304931640625,0.33398139476776123,1.0,0.6379480957984924
23460,0.706298828125,0.7097364664077759,0.871160089969635,0.817702054977417
23461,0.556884765625,0.5837005376815796,0.8308104276657104,0.6732378005981445
23462,0.08984375,0.13789573311805725,0.3333333134651184,0.35386157035827637
23463,0.091796875,0.10552978515625,0.3948093354701996,0.36566275358200073
23464,0.146728515625,0.20514792203903198,0.48975956439971924,0.7069685459136963
23465,0.3599446713924408,0.43362295627593994,0.36623337864875793,0.5993322134017944
23466,0.956298828125,0.9599354267120361,0.8195018768310547,0.7552585601806641
23467,0.962158203125,0.962691605091095,0.8420895934104919,0.7729852199554443
23468,0.953369140625,0.9603369235992432,0.6543781161308289,0.7669051885604858
23469,0.95703125,0.9576971530914307,0.8046074509620667,0.8435359001159668
23470,0.1106770858168602,0.16277693212032318,0.37429505586624146,0.4319944977760315
23471,0.146728515625,0.18325583636760712,0.58057701587677,0.6618653535842896
23472,0.12109375,0.2054070681333542,0.16759954392910004,0.3564082384109497
23473,0.968017578125,0.9680578112602234,1.0,0.8787144422531128
23474,0.228759765625,0.27580100297927856,0.6461858153343201,0.780101478099823
23475,0.0,0.15587091445922852,0.0,0.33281099796295166
23476,0.0,0.08842120319604874,0.0,0.211680069565773
23477,0.393798828125,0.45019906759262085,0.5977610945701599,0.6142701506614685
23478,0.1875,0.3220334053039551,0.2886616587638855,0.6247179508209229
23479,0.0,0.06772281229496002,0.0,0.35594069957733154
23480,0.606689453125,0.643318772315979,0.6509066820144653,0.7590668201446533
23481,0.197998046875,0.25745999813079834,0.29449179768562317,0.3282947540283203
23482,0.12109375,0.16261637210845947,0.19355076551437378,0.2283545434474945
23483,0.304931640625,0.361265629529953,0.4285714626312256,0.5064225792884827
23484,0.606689453125,0.6423640251159668,1.0,0.9404875040054321
23485,0.197998046875,0.23244860768318176,0.6871474981307983,0.5830932855606079
23486,0.951904296875,0.9567497372627258,0.8690900206565857,0.760032057762146
23487,0.08203125,0.12401159107685089,0.11613046377897263,0.16265760362148285
23488,0.5757650136947632,0.5778805017471313,0.763222336769104,0.7241086363792419
23489,0.091796875,0.1743084192276001,0.1093372330069542,0.2564983069896698
23490,0.2774251401424408,0.3752792477607727,0.36153164505958557,0.5030781626701355
23491,0.580322265625,0.6146154999732971,0.86592036485672,0.7182415127754211
23492,0.393798828125,0.43827754259109497,0.5977610945701599,0.5627459287643433
23493,0.4375,0.455078125,0.6735438704490662,0.697583794593811
23494,0.08984375,0.14271564781665802,0.3333333134651184,0.3271011412143707
23495,0.0625,0.12573003768920898,0.24207624793052673,0.6635221838951111
23496,0.263671875,0.3586105704307556,0.32801172137260437,0.49166977405548096
23497,0.9507649540901184,0.9533894062042236,0.8898733854293823,0.7538463473320007
23498,0.393798828125,0.4244934022426605,0.5977610945701599,0.5221338272094727
23499,0.2044270783662796,0.2387344092130661,0.5474918484687805,0.3987486958503723
23500,0.518798828125,0.5504347085952759,0.6967307925224304,0.6499705910682678
23501,0.110107421875,0.19263750314712524,0.3333333134651184,0.5876557230949402
23502,0.212890625,0.2444092333316803,0.5679726600646973,0.5087749361991882
23503,0.967041015625,0.9676120281219482,0.9284793138504028,0.7779708504676819
23504,0.967041015625,0.9676974415779114,0.8122885227203369,0.8814816474914551
23505,0.606689453125,0.6342018246650696,1.0,0.6872711777687073
23506,0.606689453125,0.6494668126106262,0.6509066820144653,0.7476121187210083
23507,0.110107421875,0.1722521185874939,0.3333333134651184,0.48967429995536804
23508,0.278564453125,0.33272403478622437,0.45805788040161133,0.7111706137657166
23509,0.606689453125,0.6383680701255798,1.0,0.73988276720047
23510,0.0,0.08083496242761612,0.0,0.31202423572540283
23511,0.488037109375,0.5279716849327087,0.8785831332206726,0.8699556589126587
23512,0.51953125,0.5608165264129639,0.7039180994033813,0.7164587378501892
23513,0.212890625,0.31804317235946655,0.28110769391059875,0.5166183114051819
23514,0.968017578125,0.9680525064468384,1.0,0.8074519634246826
23515,0.953369140625,0.9571139216423035,0.912726640701294,0.7896087169647217
23516,0.606689453125,0.6352481842041016,1.0,0.8153501749038696
23517,0.953369140625,0.9580175876617432,0.912726640701294,0.832918643951416
23518,0.531982421875,0.5799674987792969,0.48571667075157166,0.4693566560745239
23519,0.946533203125,0.9525125622749329,0.6577322483062744,0.6613536477088928
23520,0.531982421875,0.562237560749054,0.7462155222892761,0.6357691287994385
23521,0.304931640625,0.352082759141922,1.0,0.7502561211585999
23522,0.9673665165901184,0.9677347540855408,1.0,0.8613154888153076
23523,0.499755859375,0.5385841131210327,0.7271926999092102,0.6571667790412903
23524,0.393798828125,0.4695369005203247,0.38908666372299194,0.5974961519241333
23525,0.44921875,0.5141137838363647,0.7216541767120361,0.7489234209060669
23526,0.659423828125,0.6642447710037231,0.6764605641365051,0.7629036903381348
23527,0.146728515625,0.1687256395816803,0.48975956439971924,0.45775365829467773
23528,0.9466145634651184,0.9519873261451721,0.8072783350944519,0.7384334206581116
23529,0.228759765625,0.28126898407936096,0.3198178708553314,0.4089275002479553
23530,0.567138671875,0.592035174369812,0.7988805174827576,0.6325486898422241
23531,0.946533203125,0.954314112663269,0.8026000261306763,0.8145883083343506
23532,0.1875,0.2366282194852829,0.2886616587638855,0.42284175753593445
23533,0.02083333395421505,0.0423482283949852,0.23463936150074005,0.27426549792289734
23534,0.9507649540901184,0.9553268551826477,0.8898733854293823,0.7634443640708923
23535,0.304931640625,0.39347004890441895,0.4285714626312256,0.6608606576919556
23536,0.091796875,0.13265228271484375,0.255120187997818,0.40506258606910706
23537,0.9507649540901184,0.9560062289237976,0.8898733854293823,0.9484590291976929
23538,0.19921875,0.24383527040481567,0.30167919397354126,0.3251957297325134
23539,0.3059895932674408,0.3421825170516968,0.625433623790741,0.5761222243309021
23540,0.02083333395421505,0.04801543802022934,0.12103812396526337,0.26923680305480957
23541,0.300537109375,0.34752485156059265,0.4636814594268799,0.4360162615776062
23542,0.518798828125,0.5793836116790771,0.6967307925224304,0.7644802331924438
23543,0.110107421875,0.20318511128425598,0.16497723758220673,0.4134335517883301
23544,0.304931640625,0.40549612045288086,0.4285714626312256,0.6426481604576111
23545,0.091796875,0.18388909101486206,0.255120187997818,0.4791147708892822
23546,0.09375,0.1892542541027069,0.12689225375652313,0.3712846040725708
23547,0.556884765625,0.5965816974639893,0.5407800078392029,0.5374319553375244
23548,0.606689453125,0.6370431184768677,1.0,0.8453593254089355
23549,0.556884765625,0.6018051505088806,0.8308104276657104,0.6837952733039856
23550,0.9388020634651184,0.9392598271369934,0.8427215218544006,0.6830880641937256
23551,0.146728515625,0.236943781375885,0.2098969668149948,0.287998229265213
23552,0.518798828125,0.5732055902481079,0.6967307925224304,0.7905897498130798
23553,0.959228515625,0.9597457051277161,0.7631344795227051,0.8401064872741699
23554,0.580322265625,0.618550717830658,0.5636333227157593,0.6002233028411865
23555,0.23828125,0.2563323974609375,0.8344475626945496,0.9131210446357727
23556,0.2774251401424408,0.3249858021736145,0.4175114035606384,0.4228799641132355
23557,0.16796875,0.20739346742630005,0.3198178708553314,0.3934139311313629
23558,0.374755859375,0.41142964363098145,0.5307213068008423,0.4696148633956909
23559,0.228759765625,0.3256605565547943,0.276936799287796,0.366035521030426
23560,0.9444172978401184,0.9517781734466553,0.544137716293335,0.663490891456604
23561,0.556884765625,0.5942597985267639,0.8308104276657104,0.6054602861404419
23562,0.490234375,0.506454348564148,0.8556691408157349,0.6894965767860413
23563,0.47265625,0.4767715036869049,0.4784300625324249,0.39113596081733704
23564,0.953369140625,0.9582613706588745,0.912726640701294,0.9392696022987366
23565,0.606689453125,0.6375002861022949,1.0,0.827883243560791
23566,0.146728515625,0.218081995844841,0.3012597858905792,0.4611503779888153
23567,0.365234375,0.4499138593673706,0.4972013831138611,0.6310601830482483
23568,0.03125,0.0616513192653656,0.09869397431612015,0.18504515290260315
23569,0.488037109375,0.5609166026115417,0.6121358871459961,0.8123916983604431
23570,0.0625,0.1053009033203125,0.24207624793052673,0.45698082447052
23571,0.956298828125,0.960188627243042,1.0,0.9206324815750122
23572,0.2774251401424408,0.33586132526397705,0.4175114035606384,0.4836892783641815
23573,0.1106770858168602,0.14533326029777527,0.37429505586624146,0.3687411844730377
23574,0.556884765625,0.5851545929908752,0.8308104276657104,0.7611954212188721
23575,0.943115234375,0.9500906467437744,0.7475366592407227,0.821973979473114
23576,0.968017578125,0.9680771231651306,1.0,0.9165673851966858
23577,0.091796875,0.2270849049091339,0.1093372330069542,0.3311161994934082
23578,0.633056640625,0.6369221210479736,0.715326726436615,0.653093695640564
23579,0.228759765625,0.30269238352775574,0.276936799287796,0.3758246600627899
23580,0.580322265625,0.6243934631347656,0.86592036485672,0.7786403894424438
23581,0.956298828125,0.9595581889152527,1.0,0.8529058694839478
23582,0.531982421875,0.5829798579216003,0.3482339084148407,0.44966205954551697
23583,0.947998046875,0.9560148119926453,0.6841284036636353,0.7515847086906433
23584,0.393798828125,0.4399784207344055,0.5977610945701599,0.49336954951286316
23585,0.967041015625,0.9676574468612671,0.9284793138504028,0.8440160751342773
23586,0.1875,0.1875,1.0,1.0
23587,0.5694172978401184,0.5809004902839661,0.4055802822113037,0.5233597159385681
23588,0.0,0.0,0.0,0.0
23589,0.953369140625,0.9575221538543701,0.7479812502861023,0.7673488855361938
23590,0.580322265625,0.6135587692260742,0.86592036485672,0.8161681890487671
23591,0.967041015625,0.9674392342567444,0.8122885227203369,0.5683857202529907
23592,0.518798828125,0.5726486444473267,0.6967307925224304,0.5940130949020386
23593,0.344482421875,0.38172274827957153,0.5977610945701599,0.614161491394043
23594,0.323974609375,0.39646977186203003,0.47805625200271606,0.6458653211593628
23595,0.228759765625,0.2614240348339081,1.0,0.8973537683486938
23596,0.556884765625,0.5921941995620728,0.8308104276657104,0.8311469554901123
23597,0.08984375,0.15922659635543823,0.20503923296928406,0.39384007453918457
23598,0.567138671875,0.6049056053161621,0.7988805174827576,0.6017223596572876
23599,0.499755859375,0.5424670577049255,0.9037794470787048,0.8459064364433289
23600,0.556884765625,0.5981612205505371,0.8308104276657104,0.7043365240097046
23601,0.953369140625,0.9564787745475769,0.912726640701294,0.8036726117134094
23602,0.518798828125,0.569050669670105,0.6967307925224304,0.5987758636474609
23603,0.12109375,0.1890602707862854,0.16759954392910004,0.2341504842042923
23605,0.968017578125,0.968058168888092,1.0,0.9043929576873779
23606,0.21875,0.25044530630111694,0.29608193039894104,0.2747812271118164
23607,0.51953125,0.5568421483039856,0.7039180994033813,0.5814408659934998
23608,0.304931640625,0.381539911031723,0.4285714626312256,0.5312609672546387
23609,0.263671875,0.32145923376083374,0.7653606534004211,0.7154862284660339
23610,0.365234375,0.40044867992401123,0.4972013831138611,0.504776656627655
23611,0.946533203125,0.955579400062561,0.575423002243042,0.7212857604026794
23612,0.166259765625,0.2827757000923157,0.2626707851886749,0.5499870181083679
23613,0.197998046875,0.25144678354263306,0.6871474981307983,0.5980809330940247
23614,0.03125,0.1043177992105484,0.0488467775285244,0.2135644257068634
23615,0.278564453125,0.3995465636253357,0.21157628297805786,0.5943627953529358
23616,0.2774251401424408,0.37943077087402344,0.36153164505958557,0.6466423869132996
23617,0.197998046875,0.27822399139404297,0.29449179768562317,0.39745667576789856
23618,0.9673665165901184,0.9676245450973511,1.0,0.7411157488822937
23619,0.962158203125,0.9626392722129822,0.8420895934104919,0.9035711884498596
23620,0.531982421875,0.5757088661193848,0.7462155222892761,0.6194687485694885
23621,0.9673665165901184,0.9677795767784119,0.8748590350151062,0.8333221673965454
23622,0.968017578125,0.9680763483047485,1.0,0.931971549987793
23623,0.953369140625,0.9596311450004578,0.6543781161308289,0.6779528856277466
23624,0.606689453125,0.6365423202514648,1.0,0.8552025556564331
23625,0.9673665165901184,0.9679083824157715,0.8748590350151062,0.8432640433311462
23627,0.9507649540901184,0.9578068852424622,0.6379934549331665,0.7478577494621277
23628,0.712158203125,0.7125983238220215,0.8569586873054504,0.9058645963668823
23629,0.946533203125,0.9529832005500793,0.8793432712554932,0.918764591217041
23630,0.110107421875,0.19738686084747314,0.3333333134651184,0.6956261992454529
23631,0.263671875,0.3296911120414734,0.32801172137260437,0.3587339222431183
23632,0.12109375,0.16932547092437744,0.19355076551437378,0.2684915065765381
23633,0.518798828125,0.5713971853256226,0.6967307925224304,0.6075460910797119
23634,0.261474609375,0.312822163105011,0.4285714626312256,0.4415780305862427
23635,0.14453125,0.23287129402160645,0.2626707851886749,0.4968183636665344
23636,0.606689453125,0.6279075741767883,1.0,0.8702324628829956
23637,0.706298828125,0.7111781239509583,0.6245770454406738,0.7775571346282959
23638,0.9673665165901184,0.9677667617797852,0.8748590350151062,0.8217594623565674
23639,0.263671875,0.38286828994750977,0.37880125641822815,0.7001078128814697
23640,0.374755859375,0.4059768319129944,0.6128985285758972,0.5343503952026367
23641,0.619873046875,0.627903938293457,0.4733748733997345,0.6331403851509094
23642,0.531982421875,0.5575833320617676,0.7462155222892761,0.6612225770950317
23643,0.0,0.013671875,0.0,0.20503242313861847
23644,0.967041015625,0.9676674008369446,0.8122885227203369,0.7302626371383667
23645,0.9507649540901184,0.9529173970222473,0.8898733854293823,0.7958341836929321
23646,0.05078125,0.12094472348690033,0.08755692839622498,0.23378422856330872
23647,0.3599446713924408,0.40316247940063477,0.6497723460197449,0.7008532881736755
23648,0.953369140625,0.9575962424278259,0.912726640701294,0.9787676930427551
23649,0.02083333395421505,0.09157034009695053,0.09271639585494995,0.4348052144050598
23650,0.606689453125,0.6363895535469055,1.0,0.7701862454414368
23651,0.560546875,0.6094596982002258,0.7653606534004211,0.573236882686615
23652,0.9668782353401184,0.9674529433250427,0.892719030380249,0.914851188659668
23653,0.956298828125,0.9604624509811401,0.7169486284255981,0.8135169744491577
23654,0.2774251401424408,0.35817983746528625,0.8435737490653992,0.8803485631942749
23655,0.23046875,0.2771649956703186,0.38063758611679077,0.4689158797264099
23656,0.304931640625,0.36318352818489075,0.6151177287101746,0.613677978515625
23657,0.0,0.09723183512687683,0.0,0.23720088601112366
23658,0.490234375,0.5465365648269653,0.6884825229644775,0.7342169880867004
23659,0.947998046875,0.9530452489852905,0.6841284036636353,0.7208414673805237
23660,0.3599446713924408,0.39771121740341187,0.5626510977745056,0.5970364212989807
23661,0.947998046875,0.9517213106155396,0.8348100185394287,0.7812945246696472
23662,0.09375,0.2512423098087311,0.0904926061630249,0.34800708293914795
23663,0.0,0.0621396042406559,0.0,0.15915600955486298
23664,0.267578125,0.36080464720726013,0.36312174797058105,0.599001944065094
23665,0.197998046875,0.23821291327476501,0.42267662286758423,0.40375155210494995
23666,0.968017578125,0.9680680632591248,1.0,0.9735465049743652
23667,0.08203125,0.13865114748477936,0.23463936150074005,0.3363935351371765
23668,0.260498046875,0.2895088195800781,0.8026120662689209,0.9413045644760132
23669,0.3599446713924408,0.40711042284965515,0.5626510977745056,0.6714617609977722
23670,0.488037109375,0.5911751389503479,0.4365417957305908,0.7412791848182678
23671,0.560546875,0.6050451993942261,0.7653606534004211,0.7351894378662109
23672,0.3599446713924408,0.4267755150794983,0.5626510977745056,0.6457898020744324
23673,0.499755859375,0.5710378885269165,0.629690945148468,0.5926496386528015
23674,0.304931640625,0.3082839846611023,1.0,0.6399950981140137
23675,0.14453125,0.27813825011253357,0.22745199501514435,0.6617319583892822
23676,0.323974609375,0.3828083872795105,0.5520787835121155,0.6631819605827332
23677,0.499755859375,0.5461071729660034,0.629690945148468,0.6110094785690308
23679,0.956298828125,0.9595068097114563,1.0,0.8933205008506775
23680,0.9444172978401184,0.9508598446846008,0.8315341472625732,0.8748430013656616
23681,0.3059895932674408,0.34277787804603577,0.625433623790741,0.5480545163154602
23682,0.304931640625,0.38307642936706543,0.6151177287101746,0.7397428154945374
23683,0.14453125,0.1491156667470932,0.5307213068008423,0.4881790280342102
23684,0.431884765625,0.4668114185333252,0.7318407297134399,0.6008549332618713
23685,0.3599446713924408,0.408700168132782,0.5626510977745056,0.5326008200645447
23686,0.488037109375,0.5258999466896057,0.6121358871459961,0.5400062799453735
23687,0.110107421875,0.15022173523902893,0.5158474445343018,0.6001420021057129
23688,0.560546875,0.6177437901496887,0.4981783330440521,0.6536391973495483
23689,0.365234375,0.4219377636909485,0.4972013831138611,0.6071878671646118
23690,0.47265625,0.5345046520233154,0.5698384642601013,0.7103731632232666
23691,0.953369140625,0.958503246307373,0.912726640701294,0.8809311389923096
23692,0.956298828125,0.9598919749259949,1.0,0.8893669843673706
23693,0.953369140625,0.9585043787956238,0.912726640701294,0.8542742729187012
23694,0.146728515625,0.2516697645187378,0.2098969668149948,0.5256713628768921
23695,0.304931640625,0.3878566026687622,0.4285714626312256,0.5744069218635559
23696,0.197998046875,0.26281291246414185,0.29449179768562317,0.3844406008720398
23697,0.05078125,0.10922622680664062,0.08755692839622498,0.21611608564853668
23698,0.580322265625,0.6182184815406799,0.86592036485672,0.675610363483429
23699,0.374755859375,0.4289390444755554,0.5307213068008423,0.48730623722076416
23700,0.488037109375,0.538460910320282,0.8785831332206726,0.8795728087425232
23701,0.260498046875,0.3019118309020996,0.49370092153549194,0.47941359877586365
23702,0.580322265625,0.6157985329627991,0.86592036485672,0.685127317905426
23703,0.30078125,0.3347637355327606,0.5307213068008423,0.5129518508911133
23704,0.580322265625,0.6258903741836548,0.86592036485672,0.842937171459198
23705,0.956298828125,0.9594123959541321,0.8195018768310547,0.7720801830291748
23706,0.580322265625,0.6230162978172302,0.86592036485672,0.8113653659820557
23707,0.968017578125,0.9680769443511963,1.0,0.8873602151870728
23708,0.706298828125,0.7094781994819641,0.871160089969635,0.7666016817092896
23710,0.606689453125,0.6417990922927856,1.0,0.9188462495803833
23711,0.9673665165901184,0.9677696824073792,1.0,0.9475773572921753
23712,0.110107421875,0.19032935798168182,0.1428571492433548,0.31769803166389465
23714,0.0,0.072265625,0.0,0.21166272461414337
23715,0.304931640625,0.346069872379303,0.49493172764778137,0.5075658559799194
23716,0.110107421875,0.16973662376403809,0.3951442539691925,0.6058604717254639
23717,0.304931640625,0.35523831844329834,0.6151177287101746,0.5708073973655701
23718,0.212890625,0.281491756439209,0.5679726600646973,0.544685423374176
23719,0.968017578125,0.9680652618408203,1.0,0.9256313443183899
23720,0.1106770858168602,0.18417112529277802,0.37429505586624146,0.4480440616607666
23721,0.091796875,0.15425586700439453,0.12626707553863525,0.23334355652332306
23722,0.393798828125,0.43542370200157166,0.5977610945701599,0.4979570209980011
23723,0.263671875,0.30242040753364563,0.7653606534004211,0.5343976616859436
23724,0.304931640625,0.38920721411705017,0.4285714626312256,0.7006124258041382
23725,0.365234375,0.47561293840408325,0.23202729225158691,0.4285701811313629
23726,0.393798828125,0.43586471676826477,0.5977610945701599,0.6681140065193176
23727,0.953369140625,0.9602906107902527,0.6543781161308289,0.6060798168182373
23728,0.9673665165901184,0.9679033160209656,0.8748590350151062,0.8769469857215881
23729,0.197998046875,0.24916769564151764,0.42267662286758423,0.4605547785758972
23730,0.219970703125,0.2853108048439026,0.34397661685943604,0.3399439752101898
23731,0.0,0.0078125,0.0,0.0954604297876358
23732,0.466064453125,0.4944521486759186,0.7823625802993774,0.5948339104652405
23733,0.228759765625,0.2679787874221802,0.3974803686141968,0.3547506332397461
23734,0.712158203125,0.7126185894012451,0.7497180104255676,0.8449606895446777
23735,0.300537109375,0.33807069063186646,0.5354781746864319,0.5559513568878174
23736,0.518798828125,0.5829688310623169,0.6967307925224304,0.7828204035758972
23737,0.580322265625,0.6037390232086182,0.86592036485672,0.7899811267852783
23738,0.228759765625,0.26141104102134705,0.3974803686141968,0.3442423641681671
23739,0.0,0.012500000186264515,0.0,0.38685280084609985
23740,0.16796875,0.2167598158121109,0.34665608406066895,0.5808800458908081
23741,0.706298828125,0.7089957594871521,0.871160089969635,0.7782031893730164
23742,0.431884765625,0.4660709500312805,0.390377938747406,0.41916000843048096
23743,0.1106770858168602,0.20159146189689636,0.2302355170249939,0.47473636269569397
23744,0.228759765625,0.27997395396232605,0.6461858153343201,0.5675737261772156
23745,0.518798828125,0.5848098993301392,0.3716495931148529,0.4700496792793274
23746,0.16796875,0.19840791821479797,0.3974803686141968,0.39514613151550293
23747,0.0,0.008928571827709675,0.0,0.029887614771723747
23748,0.968017578125,0.9680677652359009,1.0,0.8389753699302673
23749,0.9673665165901184,0.9677491188049316,0.8748590350151062,0.8909525275230408
23750,0.706298828125,0.7104019522666931,0.6245770454406738,0.8116754293441772
23751,0.260498046875,0.332161545753479,0.8026120662689209,0.8610835075378418
23752,0.9466145634651184,0.9551049470901489,0.6615661382675171,0.8052359223365784
23753,0.606689453125,0.6391569375991821,1.0,0.8954699039459229
23754,0.571533203125,0.5769168734550476,0.6676040887832642,0.7306462526321411
23755,0.466064453125,0.512596845626831,0.5450960993766785,0.4087071120738983
23756,0.110107421875,0.1448965072631836,0.5158474445343018,0.5510299205780029
23757,0.967041015625,0.9678148627281189,0.8122885227203369,0.7868108153343201
23758,0.51953125,0.5265350341796875,0.8129132390022278,0.6937223672866821
23759,0.110107421875,0.19042733311653137,0.3333333134651184,0.4852921664714813
23760,0.393798828125,0.4264625608921051,0.5977610945701599,0.563624918460846
23761,0.3599446713924408,0.4062013030052185,0.40125197172164917,0.5101139545440674
23762,0.556884765625,0.5893622636795044,0.8308104276657104,0.8315107226371765
23763,0.260498046875,0.32075363397598267,0.34397661685943604,0.3561907410621643
23764,0.499755859375,0.5334465503692627,0.9037794470787048,0.7790111899375916
23765,0.606689453125,0.6336118578910828,1.0,0.782429039478302
23766,0.499755859375,0.5488392114639282,0.629690945148468,0.6546062231063843
23767,0.499755859375,0.578876793384552,0.629690945148468,0.7196699976921082
23768,0.956298828125,0.9579816460609436,1.0,0.8997853994369507
23769,0.606689453125,0.6391788721084595,1.0,0.7769899964332581
23770,0.956298828125,0.9601298570632935,1.0,0.9611251950263977
23771,0.47265625,0.532699704170227,0.5698384642601013,0.4962470233440399
23772,0.393798828125,0.43945255875587463,0.5977610945701599,0.6061972975730896
23773,0.9466145634651184,0.9500201940536499,0.8844688534736633,0.8137308359146118
23774,0.228759765625,0.295884370803833,0.3974803686141968,0.4557875096797943
23775,0.23828125,0.31645575165748596,0.43299248814582825,0.5960913300514221
23776,0.953369140625,0.9587804675102234,0.912726640701294,0.8433182835578918
23777,0.3599446713924408,0.41062939167022705,0.5626510977745056,0.6532445549964905
23778,0.0,0.07552605867385864,0.0,0.25453701615333557
23779,0.304931640625,0.3676678240299225,0.49493172764778137,0.6048459410667419
23780,0.518798828125,0.5334147214889526,0.6967307925224304,0.4400423467159271
23781,0.968017578125,0.9680762887001038,1.0,0.8333206176757812
23782,0.23828125,0.3218165338039398,0.30167919397354126,0.47969701886177063
23783,0.580322265625,0.6276410222053528,0.86592036485672,0.7437058091163635
23784,0.146728515625,0.2058628350496292,0.3012597858905792,0.35995790362358093
23785,0.499755859375,0.5568996667861938,0.7271926999092102,0.8465195894241333
23786,0.956298828125,0.9611189961433411,0.7169486284255981,0.8929705619812012
23787,0.228759765625,0.346635639667511,0.18026001751422882,0.38084208965301514
23788,0.146728515625,0.146728515625,0.7579237222671509,0.7579237222671509
23789,0.951904296875,0.9598754048347473,0.7122209072113037,0.8943894505500793
23790,0.110107421875,0.1543261557817459,0.5158474445343018,0.6430379152297974
23791,0.263671875,0.35325127840042114,0.32801172137260437,0.5000235438346863
23792,0.567138671875,0.6067031025886536,0.7988805174827576,0.7184494733810425
23793,0.962158203125,0.9626118540763855,0.8420895934104919,0.7772272825241089
23794,0.08203125,0.088134765625,0.7039180994033813,0.4233240783214569
23795,0.659423828125,0.6629388928413391,0.8254533410072327,0.7772156000137329
23796,0.166259765625,0.2326432317495346,0.32645606994628906,0.4401029646396637
23797,0.146728515625,0.263871431350708,0.2098969668149948,0.5449181199073792
23798,0.25390625,0.31325826048851013,0.39664164185523987,0.48742353916168213
23799,0.261474609375,0.3415435552597046,0.2789600193500519,0.5478478670120239
23800,0.560546875,0.598250150680542,0.7653606534004211,0.810973048210144
23801,0.1106770858168602,0.13753744959831238,0.18525049090385437,0.21261130273342133
23802,0.518798828125,0.5666140913963318,0.8046129941940308,0.8122957944869995
23803,0.61328125,0.6182039380073547,0.6327316761016846,0.6130843758583069
23804,0.518798828125,0.571406900882721,0.6967307925224304,0.8098278045654297
23805,0.278564453125,0.32656678557395935,0.39664164185523987,0.3609966039657593
23806,0.25390625,0.3210966885089874,0.25817668437957764,0.34965065121650696
23807,0.0625,0.122314453125,0.07742030918598175,0.16839277744293213
23808,0.08203125,0.1678619384765625,0.18448074162006378,0.5183737277984619
23809,0.431884765625,0.4776823818683624,0.7318407297134399,0.7674415111541748
23810,0.212890625,0.3019978106021881,0.24341687560081482,0.4221155643463135
23812,0.12109375,0.1290283203125,0.46358197927474976,0.4904651641845703
23813,0.431884765625,0.4773327112197876,0.7318407297134399,0.6785997152328491
23814,0.08203125,0.16210581362247467,0.10055973380804062,0.24428415298461914
23815,0.393798828125,0.45610204339027405,0.5977610945701599,0.5866977572441101
23816,0.712158203125,0.7126419544219971,0.7497180104255676,0.869206964969635
23817,0.12109375,0.17301149666309357,0.3910655975341797,0.47433722019195557
23818,0.946533203125,0.9521823525428772,0.8026000261306763,0.7786942720413208
23819,0.0,0.0154389888048172,0.0,0.2976932227611542
23820,0.518798828125,0.5507006049156189,0.6967307925224304,0.6501116156578064
23821,0.499755859375,0.5730752348899841,0.629690945148468,0.6531468629837036
23822,0.455078125,0.49469906091690063,0.5115761756896973,0.46154406666755676
23823,0.9668782353401184,0.9674756526947021,0.892719030380249,0.8538579940795898
23824,0.580322265625,0.6272197365760803,0.86592036485672,0.7661298513412476
23825,0.304931640625,0.38130056858062744,0.4285714626312256,0.632723867893219
23826,0.0625,0.0771484375,0.4692787230014801,0.3148801624774933
23827,0.12109375,0.1258544921875,0.605190634727478,0.4262305796146393
23828,0.5757650136947632,0.5794920921325684,0.6966133713722229,0.708060085773468
23829,0.48828125,0.488884836435318,0.6066363453865051,0.6165836453437805
23830,0.197998046875,0.29017800092697144,0.29449179768562317,0.5648055672645569
23831,0.606689453125,0.6390887498855591,1.0,0.767947793006897
23832,0.228759765625,0.25869154930114746,1.0,0.8900076746940613
23833,0.469970703125,0.47658222913742065,0.5407800078392029,0.662401020526886
23834,0.9668782353401184,0.9672675132751465,0.7810032963752747,0.665113627910614
23835,0.9444172978401184,0.9499618411064148,0.8315341472625732,0.8128436207771301
23836,0.518798828125,0.5761244893074036,0.6967307925224304,0.5974453091621399
23837,0.212890625,0.27633392810821533,0.3493700623512268,0.4178086817264557
23838,0.3599446713924408,0.4186710715293884,0.5626510977745056,0.592807412147522
23839,0.2774251401424408,0.322288453578949,0.8435737490653992,0.6491333246231079
23840,0.150390625,0.1583251953125,0.7002755999565125,0.49651825428009033
23841,0.556884765625,0.599346935749054,0.8308104276657104,0.6484050154685974
23842,0.580322265625,0.6243147850036621,0.86592036485672,0.7962305545806885
23843,0.304931640625,0.37708237767219543,0.6151177287101746,0.6799448132514954
23844,0.606689453125,0.6244756579399109,1.0,0.5944980978965759
23845,0.110107421875,0.15272581577301025,0.5158474445343018,0.6657571196556091
23846,0.9673665165901184,0.9675811529159546,1.0,0.7748082280158997
23847,0.219970703125,0.30023813247680664,0.34397661685943604,0.40972447395324707
23848,0.197998046875,0.2619156837463379,0.34009110927581787,0.45546266436576843
23849,0.304931640625,0.387942910194397,0.2789600193500519,0.4463665783405304
23850,0.946533203125,0.9516388177871704,0.8026000261306763,0.807421088218689
23851,0.499755859375,0.5869570374488831,0.4098700284957886,0.6636641025543213
23852,0.05078125,0.09905082732439041,0.5307212471961975,0.7162874937057495
23853,0.03125,0.08627749979496002,0.15273310244083405,0.461880624294281
23854,0.228759765625,0.30237674713134766,0.276936799287796,0.387674480676651
23855,0.967041015625,0.9675149321556091,0.8122885227203369,0.7210791707038879
23856,0.9673665165901184,0.9676823019981384,1.0,0.8484199047088623
23857,0.518798828125,0.5624980330467224,0.6967307925224304,0.6566123962402344
23858,0.304931640625,0.40929174423217773,0.4285714626312256,0.5948092341423035
23859,0.499755859375,0.548899233341217,0.7271926999092102,0.7514269351959229
23860,0.02083333395421505,0.1520741879940033,0.038710154592990875,0.31557995080947876
23861,0.393798828125,0.4371795952320099,0.5977610945701599,0.5661057829856873
23862,0.03125,0.0458984375,0.38685283064842224,0.6509209871292114
23863,0.228759765625,0.25916528701782227,0.6461858153343201,0.42754507064819336
23864,0.518798828125,0.5566136837005615,0.6967307925224304,0.604680061340332
23865,0.2774251401424408,0.3466622829437256,0.5188971757888794,0.5732141733169556
23866,0.531982421875,0.5785226821899414,0.7462155222892761,0.703807532787323
23867,0.606689453125,0.6404634714126587,1.0,0.9613439440727234
23868,0.490234375,0.4992946684360504,0.8556691408157349,0.7020756602287292
23869,0.518798828125,0.5567592978477478,0.6967307925224304,0.5213196277618408
23870,0.304931640625,0.3646164834499359,0.49493172764778137,0.550980269908905
23871,0.0625,0.088134765625,0.24207624793052673,0.29059574007987976
23872,0.556884765625,0.5838751792907715,0.8308104276657104,0.7111937403678894
23873,0.556884765625,0.6013083457946777,0.8308104276657104,0.7133152484893799
23874,0.455078125,0.500077486038208,0.5115761756896973,0.45706668496131897
23875,0.304931640625,0.38168811798095703,0.6151177287101746,0.762103796005249
23876,0.197998046875,0.30169516801834106,0.29449179768562317,0.5833696126937866
23877,0.263671875,0.38484859466552734,0.32801172137260437,0.5574238300323486
23878,0.466064453125,0.504737138748169,0.629499077796936,0.584316611289978
23879,0.304931640625,0.38457393646240234,0.4285714626312256,0.7218006253242493
23880,0.44921875,0.5161181688308716,0.5027986764907837,0.6746056079864502
23881,0.51953125,0.5626549124717712,0.7039180994033813,0.7074828147888184
23882,0.499755859375,0.5471925735473633,0.629690945148468,0.6817002296447754
23883,0.580322265625,0.6218190789222717,0.86592036485672,0.6776914596557617
23884,0.393798828125,0.40724262595176697,0.8579513430595398,0.6644691228866577
23885,0.518798828125,0.5917650461196899,0.4535067081451416,0.6915172934532166
23886,0.9444172978401184,0.950156033039093,0.8315341472625732,0.8333778977394104
23887,0.556884765625,0.6033025979995728,0.8308104276657104,0.8048708438873291
23888,0.304931640625,0.3823223114013672,0.49493172764778137,0.6852455139160156
23889,0.3599446713924408,0.39366593956947327,0.6497723460197449,0.6546614170074463
23890,0.323974609375,0.3790425658226013,0.47805625200271606,0.51022869348526
23891,0.488037109375,0.5547155141830444,0.6121358871459961,0.5451390147209167
23892,0.518798828125,0.5643258690834045,1.0,0.9254439473152161
23893,0.968017578125,0.9680654406547546,1.0,0.7826536297798157
23894,0.228759765625,0.29670393466949463,0.3974803686141968,0.5256957411766052
23895,0.1875,0.20241698622703552,0.4692787230014801,0.2696797251701355
23896,0.5694173574447632,0.572043776512146,0.6197949647903442,0.603358805179596
23897,0.567138671875,0.5930783748626709,0.7988805174827576,0.610048234462738
23898,0.323974609375,0.38610902428627014,0.5520787835121155,0.7755467891693115
23899,0.228759765625,0.2839977741241455,0.3974803686141968,0.4397232234477997
23900,0.953369140625,0.957000195980072,0.912726640701294,0.7875913977622986
23901,0.499755859375,0.536732017993927,0.7271926999092102,0.6481401324272156
23902,0.304931640625,0.3583953380584717,1.0,0.7963371276855469
23903,0.606689453125,0.6307368874549866,1.0,0.8905794620513916
23904,0.228759765625,0.3088696002960205,0.3198178708553314,0.43762877583503723
23905,0.956298828125,0.9599694609642029,0.8195018768310547,0.7896828055381775
23906,0.02083333395421505,0.08195008337497711,0.038710154592990875,0.18744175136089325
23907,0.304931640625,0.3742768466472626,0.49493172764778137,0.6432348489761353
23908,0.606689453125,0.6378331184387207,1.0,0.8039441704750061
23909,0.9673665165901184,0.9678025245666504,1.0,0.9682329297065735
23910,0.951171875,0.9598329663276672,0.6074502468109131,0.8040574193000793
23911,0.490234375,0.5335805416107178,0.8556691408157349,0.7944225072860718
23912,0.08203125,0.1321563720703125,0.3631143569946289,0.5082557201385498
23913,0.968017578125,0.9680772423744202,1.0,0.7995802164077759
23914,0.374755859375,0.429308146238327,0.5307213068008423,0.6518787741661072
23915,0.9673665165901184,0.9678467512130737,0.8748590350151062,0.7864036560058594
23916,0.44921875,0.4711356461048126,0.5027986764907837,0.4611693024635315
23917,0.968017578125,0.9680659174919128,1.0,0.9242827296257019
23919,0.567138671875,0.6056599617004395,0.7988805174827576,0.6733173131942749
23920,0.344482421875,0.3570472300052643,0.5977610945701599,0.5817679166793823
23921,0.567138671875,0.6254042983055115,0.7988805174827576,0.7926360964775085
23922,0.556884765625,0.5849065184593201,0.9594535827636719,0.8566100597381592
23923,0.304931640625,0.37558865547180176,1.0,0.9575862288475037
23924,0.0,0.06879141926765442,0.0,0.13086476922035217
23925,0.05078125,0.11713948845863342,0.10881868004798889,0.2828338146209717
23926,0.953369140625,0.9571735262870789,0.912726640701294,0.8219547271728516
23927,0.488037109375,0.561221182346344,0.6121358871459961,0.6044422388076782
23928,0.606689453125,0.6389458179473877,1.0,0.8282707929611206
23929,0.0,0.014787946827709675,0.0,0.21109268069267273
23930,0.304931640625,0.38847339153289795,0.4285714626312256,0.6092591881752014
23931,0.08203125,0.2437121570110321,0.10055973380804062,0.5025018453598022
23932,0.556884765625,0.604703426361084,0.8308104276657104,0.789338231086731
23933,0.703369140625,0.710134744644165,0.6423966884613037,0.7663567066192627
23934,0.956298828125,0.9584593772888184,1.0,0.8804506659507751
23935,0.962158203125,0.9624288082122803,0.8420895934104919,0.6727179288864136
23936,0.0,0.0,0.0,0.0
23937,0.967041015625,0.9674356579780579,0.9284793138504028,0.9202137589454651
23938,0.580322265625,0.6079267859458923,0.4618985950946808,0.4403756856918335
23939,0.091796875,0.1009521484375,0.30242785811424255,0.25458425283432007
23940,0.344482421875,0.361563116312027,0.690318763256073,0.6695952415466309
23941,0.374755859375,0.4260774254798889,0.5307213068008423,0.6006726622581482
23942,0.968017578125,0.9680594801902771,1.0,0.8429040312767029
23943,0.968017578125,0.9680615663528442,1.0,0.8701944351196289
23944,0.946533203125,0.9493475556373596,1.0,0.8424962162971497
23945,0.567138671875,0.6224108934402466,0.7988805174827576,0.838064432144165
23946,0.091796875,0.13641619682312012,0.3948093354701996,0.5616239905357361
23947,0.560546875,0.5915098190307617,0.7653606534004211,0.8122097253799438
23948,0.263671875,0.3439931869506836,0.4707868993282318,0.6689847707748413
23949,0.466064453125,0.49482324719429016,0.5450960993766785,0.4746243357658386
23950,0.2774251401424408,0.3670348525047302,0.5188971757888794,0.6418981552124023
23951,0.25390625,0.32184508442878723,0.39664164185523987,0.4390745460987091
23952,0.30078125,0.34431353211402893,0.5307213068008423,0.4918733537197113
23953,0.518798828125,0.5722923874855042,0.6967307925224304,0.6828129887580872
23954,0.0,0.0294887013733387,0.0,0.1609330177307129
23955,0.166259765625,0.18832668662071228,0.5307213068008423,0.44753867387771606
23956,0.556884765625,0.600183367729187,0.8308104276657104,0.6741417050361633
23957,0.228759765625,0.3122692406177521,0.276936799287796,0.4264320731163025
23958,0.08203125,0.1296059787273407,0.3631143569946289,0.4776243567466736
23959,0.606689453125,0.6323557496070862,1.0,0.6936550140380859
23960,0.9673665165901184,0.9676783680915833,1.0,0.8231802582740784
23961,0.304931640625,0.3351599872112274,1.0,0.7202569246292114
23962,0.556884765625,0.6059943437576294,0.8308104276657104,0.9503684043884277
23963,0.580322265625,0.6231882572174072,0.86592036485672,0.7397236227989197
23964,0.110107421875,0.17667034268379211,0.3333333134651184,0.4533248543739319
23966,0.2774251401424408,0.30456358194351196,0.5188971757888794,0.4829302132129669
23967,0.150390625,0.1686684787273407,0.5364180207252502,0.5299816727638245
23968,0.2774251401424408,0.3837132155895233,0.4175114035606384,0.6619529128074646
23969,0.197998046875,0.27422764897346497,0.6871474981307983,0.7585928440093994
23970,0.23828125,0.3270404040813446,0.30167919397354126,0.49154695868492126
23972,0.0,0.0069444444961845875,0.0,0.022026415914297104
23973,0.2774251401424408,0.3475380837917328,0.5188971757888794,0.6401109099388123
23974,0.091796875,0.2313499003648758,0.1093372330069542,0.29652541875839233
23975,0.304931640625,0.36401137709617615,0.6151177287101746,0.7118170857429504
23976,0.956298828125,0.9602466821670532,0.7169486284255981,0.7679527997970581
23977,0.9673665165901184,0.9677194356918335,0.8748590350151062,0.6926351189613342
23978,0.606689453125,0.6415636539459229,1.0,0.8638706803321838
23979,0.02083333395421505,0.0292038694024086,0.23463936150074005,0.22906361520290375
23980,0.9668782353401184,0.9674103856086731,0.7810032963752747,0.6760352849960327
23981,0.951171875,0.9523503184318542,0.6074502468109131,0.4587576985359192
23982,0.968017578125,0.9680764675140381,1.0,0.8578121662139893
23983,0.518798828125,0.5722348093986511,0.6967307925224304,0.6903536319732666
23984,0.44921875,0.5402615070343018,0.5027986764907837,0.5931909680366516
23985,0.260498046875,0.3196592330932617,0.34397661685943604,0.409470796585083
23986,0.953369140625,0.9566830992698669,0.912726640701294,0.780692458152771
23987,0.946533203125,0.9521167278289795,0.8026000261306763,0.7354709506034851
23988,0.110107421875,0.1588565558195114,0.16497723758220673,0.2678322494029999
23989,0.212890625,0.212890625,0.67329341173172,0.5262324213981628
23990,0.374755859375,0.44179585576057434,0.3454500138759613,0.465892493724823
23991,0.703369140625,0.710356593132019,0.6423966884613037,0.8280838131904602
23992,0.05078125,0.11748047173023224,0.10881868004798889,0.2552397847175598
23993,0.580322265625,0.6240509152412415,0.5636333227157593,0.7105711102485657
23994,0.260498046875,0.33095476031303406,0.397238165140152,0.5371424555778503
23995,0.606689453125,0.633596658706665,1.0,0.7773243188858032
23996,0.9507649540901184,0.953384280204773,0.974961519241333,0.8624532222747803
23997,0.951904296875,0.9544923305511475,0.9521908760070801,0.8359934091567993
23998,0.166259765625,0.2614426016807556,0.22745199501514435,0.376686155796051
23999,0.946533203125,0.9504066705703735,0.8026000261306763,0.7721329927444458
24000,0.703369140625,0.706415593624115,0.7838867902755737,0.7663059234619141
24001,0.953369140625,0.9603001475334167,0.6543781161308289,0.6425323486328125
24002,0.606689453125,0.6425411701202393,1.0,0.9621404409408569
24003,0.956298828125,0.9606470465660095,0.7169486284255981,0.798857569694519
24004,0.304931640625,0.38824543356895447,0.4285714626312256,0.5319226384162903
24005,0.946533203125,0.954595148563385,0.8026000261306763,0.8170607089996338
24006,0.228759765625,0.26714080572128296,0.3974803686141968,0.43129420280456543
24007,0.946533203125,0.9565271139144897,0.6577322483062744,0.7931841611862183
24008,0.946533203125,0.9549932479858398,0.6577322483062744,0.7721543908119202
24009,0.4375,0.49760374426841736,0.4692787528038025,0.5434020757675171
24010,0.9673665165901184,0.9678469300270081,0.8748590350151062,0.8399432301521301
24011,0.2774251401424408,0.37707555294036865,0.36153164505958557,0.48622995615005493
24012,0.518798828125,0.5701022744178772,0.6967307925224304,0.7190782427787781
24013,0.518798828125,0.5706143379211426,0.6967307925224304,0.7616032361984253
24014,0.606689453125,0.6428090333938599,0.5334192514419556,0.6407444477081299
24015,0.968017578125,0.9680687785148621,1.0,0.8232951164245605
24016,0.967041015625,0.9675930738449097,0.8122885227203369,0.7830103635787964
24017,0.580322265625,0.6312417984008789,0.86592036485672,0.929034411907196
24018,0.08203125,0.12749086320400238,0.23463936150074005,0.3192029893398285
24019,0.0,0.015625,0.0,0.08703245967626572
24020,0.431884765625,0.4783560633659363,0.7318407297134399,0.7009992599487305
24021,0.5757650136947632,0.5812374353408813,0.5708760023117065,0.6767895221710205
24022,0.12109375,0.23829583823680878,0.16759954392910004,0.40835434198379517
24023,0.304931640625,0.33527249097824097,1.0,0.6585734486579895
24024,0.14453125,0.22713986039161682,0.5307213068008423,0.6885851621627808
24025,0.091796875,0.23428410291671753,0.07116833329200745,0.28875699639320374
24026,0.110107421875,0.18461447954177856,0.3333333134651184,0.5488709211349487
24027,0.947998046875,0.9521617889404297,0.8348100185394287,0.6719207763671875
24028,0.488037109375,0.5293719172477722,0.6121358871459961,0.5343658328056335
24029,0.943359375,0.9495406746864319,0.7371450066566467,0.7973620295524597
24030,0.606689453125,0.6421739459037781,1.0,0.9057928323745728
24031,0.956298828125,0.9606367945671082,0.7169486284255981,0.782055139541626
24032,0.212890625,0.25583454966545105,0.5679726600646973,0.5157608389854431
24033,0.659423828125,0.6604015827178955,0.8254533410072327,0.7083035111427307
24034,0.5757649540901184,0.580374002456665,0.5708760023117065,0.6265276670455933
24035,0.09375,0.1010044664144516,0.29608193039894104,0.23028604686260223
24036,0.304931640625,0.38378340005874634,0.49493172764778137,0.7644910216331482
24038,0.03125,0.047119140625,0.29608193039894104,0.28351497650146484
24039,0.0,0.0154389888048172,0.0,0.0812721699476242
24040,0.606689453125,0.6353486180305481,1.0,0.762649655342102
24041,0.431884765625,0.4741366505622864,0.7318407297134399,0.7294930815696716
24042,0.967041015625,0.9673864841461182,0.9284793138504028,0.7302667498588562
24043,0.05078125,0.10820452123880386,0.10881868004798889,0.2551415264606476
24044,0.304931640625,0.37977689504623413,0.6151177287101746,0.7772629261016846
24045,0.567138671875,0.6138889193534851,0.7988805174827576,0.7020941972732544
24046,0.606689453125,0.6389437317848206,1.0,0.9458352327346802
24047,0.02083333395421505,0.0325520858168602,0.3065735995769501,0.5437713265419006
24048,0.4375,0.4466421902179718,0.6735438704490662,0.504774808883667
24049,0.2774251401424408,0.3496645390987396,0.36153164505958557,0.4942534863948822
24050,0.09375,0.17136713862419128,0.29608193039894104,0.5151745080947876
24051,0.956298828125,0.9584895968437195,1.0,0.7760756611824036
24052,0.606689453125,0.6498919725418091,0.6509066820144653,0.8464385867118835
24053,0.091796875,0.1158294677734375,0.255120187997818,0.21830867230892181
24054,0.606689453125,0.6274489760398865,1.0,0.709155797958374
24055,0.580322265625,0.6257830262184143,0.86592036485672,0.7325305938720703
24056,0.606689453125,0.6314817070960999,1.0,0.8831181526184082
24057,0.488037109375,0.5683696866035461,0.6121358871459961,0.6555492281913757
24058,0.951904296875,0.9563964009284973,0.8690900206565857,0.7807442545890808
24059,0.374755859375,0.41858866810798645,0.5307213068008423,0.5500541925430298
24060,0.560546875,0.6169116497039795,0.7653606534004211,0.7438810467720032
24061,0.531982421875,0.6033836603164673,0.48571667075157166,0.568619430065155
24062,0.940673828125,0.946371853351593,0.8770246505737305,0.807723879814148
24063,0.393798828125,0.4394957423210144,0.8579513430595398,0.8292667865753174
24064,0.091796875,0.20352190732955933,0.1093372330069542,0.3430842459201813
24065,0.556884765625,0.5964822173118591,0.8308104276657104,0.7078647613525391
24066,0.968017578125,0.9680427312850952,1.0,0.8865155577659607
24067,0.510498046875,0.5171523690223694,0.43686550855636597,0.48667970299720764
24068,0.0,0.0611979179084301,0.0,0.14645197987556458
24069,0.304931640625,0.38081082701683044,0.4285714626312256,0.639572024345398
24070,0.374755859375,0.42110714316368103,0.5307213068008423,0.4652806520462036
24071,0.2774251401424408,0.3793492913246155,0.36153164505958557,0.5464606881141663
24072,0.9507649540901184,0.9541059732437134,0.8898733854293823,0.8685401678085327
24073,0.2044270783662796,0.293623149394989,0.3367719352245331,0.49684083461761475
24074,0.556884765625,0.6063936948776245,0.8308104276657104,0.8356420993804932
24075,0.02083333395421505,0.10492648929357529,0.07821311801671982,0.43882057070732117
24076,0.951904296875,0.9585235118865967,0.6230928897857666,0.721087634563446
24077,0.953369140625,0.9566700458526611,1.0,0.9304828643798828
24078,0.51953125,0.5744299292564392,0.3754834830760956,0.5136131048202515
24079,0.518798828125,0.5554518699645996,0.6967307925224304,0.6624802947044373
24080,0.703369140625,0.7103126049041748,0.5620065331459045,0.7229385375976562
24081,0.518798828125,0.5554990172386169,1.0,0.8160615563392639
24082,0.150390625,0.23323439061641693,0.22396063804626465,0.44813475012779236
24083,0.0,0.0,0.0,0.0
24084,0.9444172978401184,0.9542653560638428,0.544137716293335,0.6499691605567932
24085,0.606689453125,0.625916600227356,1.0,0.759303092956543
24086,0.261474609375,0.307030588388443,0.49493172764778137,0.571188747882843
24087,0.959228515625,0.959756076335907,0.7631344795227051,0.5648001432418823
24088,0.12109375,0.16570743918418884,0.3910655975341797,0.4834847152233124
24089,0.567138671875,0.6142079830169678,0.5199966430664062,0.6020992994308472
24090,0.606689453125,0.6197922229766846,1.0,0.8747108578681946
24091,0.0,0.02083333395421505,0.0,0.3010300099849701
24092,0.197998046875,0.2688916027545929,0.6871474981307983,0.6744878888130188
24093,0.228759765625,0.30321505665779114,0.6461858153343201,0.7055992484092712
24094,0.197998046875,0.2894059419631958,0.29449179768562317,0.47010478377342224
24095,0.518798828125,0.5826841592788696,0.6967307925224304,0.8101223111152649
24096,0.951171875,0.9513915777206421,0.8472716808319092,0.7779804468154907
24097,0.9388020634651184,0.9424536824226379,0.6763683557510376,0.5694354772567749
24098,0.518798828125,0.5676097869873047,0.6967307925224304,0.775687038898468
24099,0.499755859375,0.5399896502494812,0.9037794470787048,0.7967988848686218
24100,0.14453125,0.16980665922164917,0.5307213068008423,0.36817941069602966
24101,0.393798828125,0.44099172949790955,0.5977610945701599,0.5889673233032227
24102,0.344482421875,0.39688873291015625,0.5977610945701599,0.5918928980827332
24103,0.0,0.0,0.0,0.0
24104,0.2774251401424408,0.3616621494293213,0.4175114035606384,0.5470213294029236
24105,0.197998046875,0.2550162971019745,0.6871474981307983,0.6599307656288147
24106,0.580322265625,0.621202826499939,0.86592036485672,0.8282796740531921
24107,0.304931640625,0.3722998797893524,0.4285714626312256,0.5281959176063538
24108,0.08203125,0.08203125,0.9197208285331726,0.9197208285331726
24109,0.956298828125,0.9592442512512207,0.7169486284255981,0.655232310295105
24110,0.2774251401424408,0.31370386481285095,0.8435737490653992,0.7659319639205933
24111,0.953369140625,0.9602934718132019,0.7479812502861023,0.7866218090057373
24112,0.393798828125,0.4578116834163666,0.5977610945701599,0.7689375281333923
24113,0.567138671875,0.60539710521698,0.7988805174827576,0.8354464769363403
24114,0.300537109375,0.34467053413391113,0.6655102372169495,0.679416298866272
24115,0.323974609375,0.33031076192855835,0.6861420273780823,0.47131291031837463
24116,0.968017578125,0.9680516719818115,1.0,0.8610851168632507
24117,0.968017578125,0.9680449366569519,1.0,0.7997796535491943
24118,0.962158203125,0.962547779083252,0.9625431895256042,0.8721899390220642
24119,0.2774251401424408,0.35783958435058594,0.8435737490653992,0.8630152940750122
24120,0.46875,0.4697265625,0.6054627895355225,0.6330156326293945
24121,0.03125,0.10445765405893326,0.09869397431612015,0.3857053518295288
24122,0.956298828125,0.9589252471923828,0.8195018768310547,0.6743263602256775
24123,0.166259765625,0.24255616962909698,0.22745199501514435,0.2841280400753021
24124,0.956298828125,0.9593258500099182,1.0,0.9380909204483032
24125,0.03125,0.03125,0.29608193039894104,0.1388624608516693
24126,0.197998046875,0.22296492755413055,0.6871474981307983,0.6624008417129517
24127,0.05078125,0.09311321377754211,0.10881868004798889,0.20523926615715027
24128,0.499755859375,0.5474897623062134,0.629690945148468,0.5001406073570251
24129,0.374755859375,0.4212213158607483,0.7617307901382446,0.7702839970588684
24130,0.606689453125,0.6366113424301147,1.0,0.8267126679420471
24131,0.08203125,0.21201996505260468,0.14433082938194275,0.5214337706565857
24132,0.2774251401424408,0.35190826654434204,0.5188971757888794,0.6381828784942627
24133,0.490234375,0.5418639779090881,0.5961710214614868,0.6620475649833679
24134,0.956298828125,0.9591418504714966,1.0,0.8962350487709045
24135,0.47265625,0.5512011647224426,0.5698384642601013,0.7495705485343933
24136,0.701904296875,0.7036454677581787,0.6066363453865051,0.5528312921524048
24137,0.9466145634651184,0.9507683515548706,0.6615661382675171,0.637387752532959
24138,0.488037109375,0.5597010254859924,0.6121358871459961,0.5929995179176331
24139,0.374755859375,0.45824071764945984,0.5307213068008423,0.7615867257118225
24140,0.9673665165901184,0.9677801728248596,0.8748590350151062,0.7550798058509827
24141,0.1106770858168602,0.18521767854690552,0.16041216254234314,0.25090691447257996
24142,0.110107421875,0.23286744952201843,0.16497723758220673,0.40537312626838684
24143,0.146728515625,0.2326367199420929,0.2098969668149948,0.39440879225730896
24144,0.304931640625,0.3785219192504883,0.6151177287101746,0.772733211517334
24145,0.619873046875,0.6241171956062317,0.6602633595466614,0.6318801045417786
24146,0.393798828125,0.42202460765838623,0.690318763256073,0.6206747889518738
24147,0.323974609375,0.4024867117404938,0.3111700117588043,0.525954008102417
24148,0.146728515625,0.20711389183998108,0.48975956439971924,0.6888680458068848
24149,0.518798828125,0.5672516226768494,0.6967307925224304,0.7119686007499695
24150,0.606689453125,0.6283547282218933,1.0,0.7384342551231384
24151,0.706298828125,0.7110934257507324,0.6245770454406738,0.7451184988021851
24152,0.260498046875,0.3421424925327301,0.397238165140152,0.582407534122467
24153,0.110107421875,0.22201533615589142,0.16497723758220673,0.43284255266189575
24154,0.197998046875,0.26393020153045654,0.6871474981307983,0.6779903769493103
24155,0.518798828125,0.5846439599990845,0.6967307925224304,0.7314863801002502
24156,0.580322265625,0.6172447800636292,0.86592036485672,0.8602046370506287
24157,0.967041015625,0.9674867987632751,0.9284793138504028,0.8784847855567932
24158,0.12109375,0.2395707666873932,0.19355076551437378,0.47026118636131287
24159,0.197998046875,0.24415841698646545,0.6871474981307983,0.7770074009895325
24160,0.556884765625,0.5935253500938416,0.8308104276657104,0.7566072344779968
24161,0.197998046875,0.2504907250404358,0.6871474981307983,0.5976324081420898
24162,0.110107421875,0.1706949770450592,0.3333333134651184,0.5937768220901489
24163,0.940673828125,0.9456084966659546,0.8770246505737305,0.7955508828163147
24164,0.951904296875,0.9546384215354919,0.8690900206565857,0.8906917572021484
24165,0.228759765625,0.3559753894805908,0.276936799287796,0.6216405630111694
24166,0.0,0.0,0.0,0.0
24167,0.197998046875,0.26639407873153687,0.6871474981307983,0.701313316822052
24168,0.2774251401424408,0.34691208600997925,0.2932012677192688,0.422899067401886
24169,0.110107421875,0.17943331599235535,0.3333333134651184,0.41055840253829956
24170,0.947998046875,0.9510618448257446,0.9146330952644348,0.8520897030830383
24171,0.951904296875,0.956049382686615,0.9521908760070801,0.9206876754760742
24172,0.556884765625,0.5930608510971069,0.5407800078392029,0.6668463349342346
24173,0.967041015625,0.9675670266151428,0.9284793138504028,0.8229342699050903
24174,0.219970703125,0.2826102375984192,0.34397661685943604,0.518937885761261
24175,0.953369140625,0.9578855037689209,0.912726640701294,0.9317599534988403
24176,0.956298828125,0.9570834040641785,1.0,0.7933105826377869
24177,0.606689453125,0.6379784941673279,1.0,0.7468492388725281
24178,0.388427734375,0.39350515604019165,0.4002777338027954,0.46617576479911804
24179,0.567138671875,0.5946764349937439,0.9225797057151794,0.8609448075294495
24180,0.518798828125,0.5775113105773926,0.6967307925224304,0.680492103099823
24181,0.08203125,0.15454359352588654,0.23463936150074005,0.48796331882476807
24182,0.23828125,0.26801449060440063,0.43299248814582825,0.3537420332431793
24183,0.606689453125,0.6374801397323608,1.0,0.908865213394165
24184,0.14453125,0.20298802852630615,0.5307213068008423,0.6366816759109497
24185,0.701904296875,0.7098111510276794,0.6066363453865051,0.7407479286193848
24186,0.146728515625,0.24985219538211823,0.11196307837963104,0.30409887433052063
24187,0.091796875,0.15923725068569183,0.12626707553863525,0.3355430066585541
24188,0.393798828125,0.44489187002182007,0.5977610945701599,0.677278995513916
24189,0.580322265625,0.622239351272583,0.86592036485672,0.8026532530784607
24190,0.110107421875,0.16461163759231567,0.20503923296928406,0.4075948894023895
24191,0.02083333395421505,0.10010850429534912,0.04811027646064758,0.26583704352378845
24192,0.606689453125,0.642235517501831,1.0,0.922465443611145
24193,0.1875,0.2077237069606781,0.7262287139892578,0.8064268827438354
24194,0.9668782353401184,0.9673505425453186,0.892719030380249,0.8786345720291138
24195,0.263671875,0.31239429116249084,0.7653606534004211,0.6027182340621948
24196,0.12109375,0.19840899109840393,0.16759954392910004,0.1948925107717514
24197,0.0625,0.0625,0.4692787230014801,0.23504553735256195
24198,0.14453125,0.2338678240776062,0.5307213068008423,0.7799082398414612
24199,0.606689453125,0.6396100521087646,0.6509066820144653,0.8191432952880859
24200,0.946533203125,0.9525982141494751,0.8026000261306763,0.6891106367111206
24201,0.580322265625,0.6140610575675964,0.86592036485672,0.7282240986824036
24202,0.2774251401424408,0.33338913321495056,0.8435737490653992,0.642003059387207
24203,0.703369140625,0.7079135775566101,0.7838867902755737,0.7210320234298706
24204,0.580322265625,0.6423693895339966,0.5636333227157593,0.7581136226654053
24205,0.940673828125,0.9419836401939392,0.8770246505737305,0.6995211243629456
24206,0.606689453125,0.6351388692855835,1.0,0.8205134868621826
24207,0.110107421875,0.13478374481201172,0.5158474445343018,0.6851075887680054
24208,0.0,0.015625,0.0,0.43067657947540283
24209,0.518798828125,0.5800021886825562,0.6967307925224304,0.9226136207580566
24210,0.267578125,0.30435559153556824,0.5766665935516357,0.7337997555732727
24211,0.304931640625,0.33915361762046814,1.0,0.9006800055503845
24212,0.946533203125,0.9517863988876343,0.8793432712554932,0.8850575685501099
24213,0.580322265625,0.6238193511962891,0.86592036485672,0.8613483309745789
24214,0.518798828125,0.5668070316314697,1.0,0.9621871709823608
24215,0.393798828125,0.42874982953071594,0.690318763256073,0.660496175289154
24216,0.110107421875,0.15884733200073242,0.3333333134651184,0.5143671035766602
24217,0.580322265625,0.621941864490509,0.86592036485672,0.9130986928939819
24218,0.2774251401424408,0.3354713022708893,0.5188971757888794,0.5981512665748596
24219,0.388427734375,0.395183801651001,0.4535067081451416,0.6382781267166138
24221,0.146728515625,0.1957564651966095,0.48975956439971924,0.5510336756706238
24222,0.3599446713924408,0.37641191482543945,0.36623337864875793,0.32404932379722595
24223,0.956298828125,0.9594498872756958,1.0,0.8772163987159729
24224,0.2774251401424408,0.33798936009407043,0.8435737490653992,0.8983484506607056
24225,0.0625,0.14205309748649597,0.09622055292129517,0.33056336641311646
24226,0.946533203125,0.9493651986122131,1.0,0.9167666435241699
24227,0.2774251401424408,0.3172714412212372,0.5188971757888794,0.5122150182723999
24228,0.03125,0.05422210693359375,0.0775962620973587,0.16682688891887665
24229,0.278564453125,0.3140791952610016,0.5692896842956543,0.6229575872421265
24230,0.14453125,0.21206623315811157,0.5307213068008423,0.7339128255844116
24231,0.05078125,0.19127529859542847,0.10881868004798889,0.49570924043655396
24232,0.9444172978401184,0.9498769044876099,0.8315341472625732,0.8387830257415771
24233,0.9673665165901184,0.9677370190620422,1.0,0.931056559085846
24234,0.212890625,0.2650524079799652,0.67329341173172,0.8225932717323303
24236,0.166259765625,0.2958475351333618,0.14805001020431519,0.43228840827941895
24237,0.956298828125,0.9589749574661255,1.0,1.0
24238,0.943359375,0.9504740238189697,0.8076295852661133,0.8966270685195923
24239,0.212890625,0.212890625,1.0,1.0
24240,0.3599446713924408,0.4011843502521515,0.5626510977745056,0.6010636687278748
24241,0.431884765625,0.46230873465538025,0.7318407297134399,0.7560467720031738
24242,0.393798828125,0.44764864444732666,0.5977610945701599,0.7861308455467224
24243,0.091796875,0.1009521484375,0.3948093354701996,0.37460166215896606
24244,0.23046875,0.2573030889034271,0.5234342813491821,0.6595324873924255
24245,0.499755859375,0.5462213158607483,0.629690945148468,0.5342612266540527
24246,0.110107421875,0.1587068736553192,0.20503923296928406,0.30185943841934204
24247,0.466064453125,0.4937850832939148,0.8656565546989441,0.8703445196151733
24248,0.518798828125,0.5447913408279419,1.0,0.8167750239372253
24249,0.197998046875,0.2057342529296875,0.8145672082901001,0.8207556009292603
24250,0.4375,0.46535229682922363,0.7452524900436401,0.8602039217948914
24251,0.431884765625,0.457716703414917,0.7318407297134399,0.6049585342407227
24252,0.228759765625,0.27066901326179504,0.6461858153343201,0.6741911172866821
24253,0.518798828125,0.5246009826660156,1.0,1.0
24254,0.1875,0.19257812201976776,0.8262346386909485,0.9058464765548706
24255,0.197998046875,0.22953025996685028,0.6871474981307983,0.7823303937911987
24256,0.263671875,0.28915199637413025,0.90728360414505,0.8731989860534668
24257,0.488037109375,0.5131949186325073,0.8785831332206726,0.9577959179878235
24258,0.228759765625,0.2886316776275635,0.6461858153343201,0.895687460899353
24259,0.091796875,0.14715230464935303,0.3948093354701996,0.7326072454452515
24260,0.166259765625,0.2688608765602112,0.32645606994628906,0.667362630367279
24261,0.304931640625,0.35285231471061707,1.0,0.9813527464866638
24262,0.228759765625,0.3362285792827606,0.2245950698852539,0.5234139561653137
24263,0.0625,0.11360476911067963,0.24207624793052673,0.6269322633743286
24264,0.146728515625,0.2569701671600342,0.3012597858905792,0.7114413380622864
24265,0.946533203125,0.9510942697525024,1.0,0.9976606369018555
24267,0.14453125,0.2003859430551529,0.5307213068008423,0.7828199863433838
24268,0.091796875,0.091796875,1.0,1.0
24269,0.212890625,0.29679304361343384,0.3493700623512268,0.6958829164505005
24270,0.260498046875,0.30837100744247437,0.8026120662689209,0.9054334759712219
24271,0.08203125,0.1228620707988739,0.3631143569946289,0.4974956810474396
24272,0.228759765625,0.30321505665779114,0.6461858153343201,0.882131040096283
24273,0.393798828125,0.44567814469337463,0.5977610945701599,0.8244950175285339
24274,0.091796875,0.13376271724700928,0.3948093354701996,0.6874602437019348
24275,0.263671875,0.3650931119918823,0.4707868993282318,0.6821154952049255
24276,0.304931640625,0.36835917830467224,1.0,0.9422137141227722
24277,0.166259765625,0.19232413172721863,0.8213136792182922,0.8608506917953491
24278,0.393798828125,0.4126558303833008,0.8579513430595398,0.8704463243484497
24279,0.110107421875,0.21269409358501434,0.20503923296928406,0.5727952718734741
24280,0.150390625,0.16735076904296875,0.7002755999565125,0.7347437739372253
24281,0.580322265625,0.6167042851448059,0.4618985950946808,0.7117082476615906
24282,0.091796875,0.11136627197265625,0.7653606534004211,0.9267581105232239
24283,0.09375,0.17435774207115173,0.29608193039894104,0.5690866112709045
24284,0.03125,0.07500457763671875,0.09869397431612015,0.25112104415893555
24285,0.146728515625,0.2399527132511139,0.3012597858905792,0.5623226165771484
24286,0.0,0.0342203788459301,0.0,0.11259911954402924
24287,0.47265625,0.5399985909461975,0.5698384642601013,0.6968568563461304
24288,0.3059895932674408,0.37695759534835815,0.4357588291168213,0.6627686619758606
24289,0.2774251401424408,0.34871813654899597,0.36153164505958557,0.4704086184501648
24290,0.304931640625,0.41095760464668274,0.4285714626312256,0.6550719738006592
24291,0.953369140625,0.9576238989830017,0.912726640701294,0.754737138748169
24292,0.197998046875,0.28537601232528687,0.29449179768562317,0.49231064319610596
24293,0.606689453125,0.6310349702835083,1.0,0.6801274418830872
24294,0.943115234375,0.9509822726249695,0.7475366592407227,0.6768894791603088
24295,0.228759765625,0.27706944942474365,0.6461858153343201,0.5456166863441467
24296,0.304931640625,0.3656376302242279,0.34757038950920105,0.45431968569755554
24297,0.946533203125,0.9540441632270813,0.8026000261306763,0.8006117939949036
24298,0.300537109375,0.34372568130493164,0.4636814594268799,0.48411622643470764
24299,0.47265625,0.4786210060119629,0.4784300625324249,0.6075512170791626
24300,0.260498046875,0.35320982336997986,0.34397661685943604,0.6421966552734375
24301,0.706298828125,0.7082340717315674,0.871160089969635,0.6872538328170776
24302,0.166259765625,0.21896430850028992,0.5307213068008423,0.6946950554847717
24303,0.9466145634651184,0.9520375728607178,0.8072783350944519,0.7402126789093018
24304,0.584228515625,0.5850040316581726,0.6245770454406738,0.7492957711219788
24305,0.05078125,0.11482425779104233,0.17690707743167877,0.2922768294811249
24306,0.304931640625,0.41030067205429077,0.4285714626312256,0.815923273563385
24307,0.09375,0.15994450449943542,0.29608193039894104,0.5306110978126526
24308,0.374755859375,0.4474538266658783,0.5307213068008423,0.6784651279449463
24309,0.197998046875,0.25429973006248474,0.6871474981307983,0.7846236824989319
24310,0.05078125,0.09549367427825928,0.17690707743167877,0.2161075919866562
24311,0.3599446713924408,0.42668795585632324,0.5626510977745056,0.6173014640808105
24312,0.9673665165901184,0.9678005576133728,0.8748590350151062,0.9326868653297424
24313,0.556884765625,0.5915045142173767,0.8308104276657104,0.7107945680618286
24314,0.518798828125,0.5652283430099487,0.6967307925224304,0.6219409704208374
24315,0.967041015625,0.9674162864685059,1.0,0.9650452733039856
24316,0.466064453125,0.511646032333374,0.7823625802993774,0.7311155796051025
24317,0.260498046875,0.3370521366596222,0.8026120662689209,0.812228262424469
24318,0.393798828125,0.4377101957798004,0.5977610945701599,0.6434271335601807
24319,0.968017578125,0.9680711030960083,1.0,0.9192264080047607
24320,0.05078125,0.11112334579229355,0.08755692839622498,0.20569303631782532
24321,0.499755859375,0.5604462623596191,0.629690945148468,0.7673859000205994
24322,0.39453125,0.3975153863430023,0.5199966430664062,0.5037412643432617
24323,0.9673665165901184,0.9677077531814575,1.0,0.8154374361038208
24324,0.9673665165901184,0.9676513671875,1.0,0.8183322548866272
24325,0.968017578125,0.9680771827697754,1.0,0.9486271142959595
24327,0.431884765625,0.4781075119972229,0.7318407297134399,0.7897958159446716
24328,0.091796875,0.091796875,0.7653606534004211,0.5531464219093323
24329,0.228759765625,0.27100899815559387,0.3974803686141968,0.4531400799751282
24330,0.0,0.10816119611263275,0.0,0.33128511905670166
24331,0.560546875,0.5839014649391174,0.8838695287704468,0.7769313454627991
24332,0.304931640625,0.37905293703079224,0.4285714626312256,0.5819545388221741
24333,0.2774251401424408,0.3340643048286438,0.36153164505958557,0.4077793061733246
24334,0.580322265625,0.6182023286819458,0.86592036485672,0.8315477967262268
24335,0.431884765625,0.47552767395973206,0.7318407297134399,0.682125449180603
24336,0.14453125,0.20517662167549133,0.5307213068008423,0.5473028421401978
24337,0.228759765625,0.29415372014045715,0.276936799287796,0.3816284239292145
24338,0.499755859375,0.5178462266921997,1.0,0.9205565452575684
24339,0.228759765625,0.24689149856567383,0.6461858153343201,0.5087338089942932
24340,0.703369140625,0.7060341835021973,0.8588406443595886,0.8204621076583862
24341,0.260498046875,0.3020251989364624,0.8026120662689209,0.6272255778312683
24342,0.39453125,0.3983663320541382,0.5199966430664062,0.49388235807418823
24343,0.2774251401424408,0.3235032260417938,0.8435737490653992,0.6525800824165344
24344,0.212890625,0.2949337661266327,0.24341687560081482,0.39716413617134094
24345,0.05078125,0.1178334429860115,0.17690707743167877,0.32272303104400635
24346,0.518798828125,0.5513279438018799,0.8046129941940308,0.7284337878227234
24347,0.1106770858168602,0.20078778266906738,0.37429505586624146,0.551588773727417
24348,0.46875,0.4839494824409485,0.3384338617324829,0.60512375831604
24349,0.3599446713924408,0.4315813481807709,0.5626510977745056,0.817661464214325
24350,0.304931640625,0.36505645513534546,0.4285714626312256,0.45209282636642456
24351,0.110107421875,0.15363550186157227,1.0,0.9266361594200134
24352,0.110107421875,0.13233335316181183,1.0,0.69376140832901
24353,0.09375,0.148885577917099,0.29608193039894104,0.5031363368034363
24354,0.0,0.012500000186264515,0.0,0.13120506703853607
24355,0.3599446713924408,0.40397897362709045,0.6497723460197449,0.6713420152664185
24356,0.09375,0.21978719532489777,0.1465403288602829,0.5615966320037842
24357,0.580322265625,0.6055117249488831,1.0,0.8884934186935425
24358,0.518798828125,0.5611506700515747,0.6967307925224304,0.7497884035110474
24359,0.374755859375,0.43708470463752747,0.5307213068008423,0.7146927714347839
24360,0.304931640625,0.3601102828979492,0.49493172764778137,0.6020569801330566
24361,0.560546875,0.6121724247932434,0.7653606534004211,0.8773260116577148
24362,0.0,0.0,0.0,0.0
24363,0.51953125,0.5732961297035217,0.7039180994033813,0.8564527034759521
24364,0.431884765625,0.4701349437236786,0.7318407297134399,0.6085820198059082
24365,0.968017578125,0.9680643081665039,1.0,0.8729658126831055
24366,0.08203125,0.15277868509292603,0.3631143569946289,0.6835657358169556
24367,0.21875,0.21875,0.6309297680854797,0.6309297680854797
24368,0.490234375,0.5128223299980164,0.8556691408157349,0.6624865531921387
24369,0.146728515625,0.2140645533800125,0.48975956439971924,0.6528722047805786
24370,0.956298828125,0.9597116708755493,1.0,0.8419456481933594
24371,0.967041015625,0.9676140546798706,0.9284793138504028,0.784382700920105
24372,0.091796875,0.091796875,1.0,1.0
24373,0.568359375,0.5807900428771973,0.3899376392364502,0.7022981643676758
24374,0.393798828125,0.46082115173339844,0.5977610945701599,0.6557115316390991
24375,0.466064453125,0.5414565205574036,0.5450960993766785,0.7744632959365845
24376,0.261474609375,0.30259716510772705,0.4285714626312256,0.36015287041664124
24377,0.940673828125,0.9426625370979309,0.771205723285675,0.7100580930709839
24378,0.499755859375,0.5510796308517456,0.9037794470787048,0.9658197164535522
24379,0.953369140625,0.9551593065261841,1.0,0.8452931642532349
24380,0.946533203125,0.9540650248527527,0.8026000261306763,0.7293495535850525
24381,0.9466145634651184,0.9537050127983093,0.5787770748138428,0.6808213591575623
24382,0.0625,0.09274101257324219,0.4692787230014801,0.5317738056182861
24383,0.110107421875,0.19343361258506775,0.3333333134651184,0.5130297541618347
24384,0.0,0.0,0.0,0.0
24385,0.606689453125,0.649635910987854,0.6509066820144653,0.6661075353622437
24386,0.260498046875,0.3444320261478424,0.34397661685943604,0.4546290338039398
24387,0.531982421875,0.5840914845466614,0.7462155222892761,0.7147614359855652
24388,0.466064453125,0.4936668872833252,0.629499077796936,0.5234257578849792
24389,0.300537109375,0.38470223546028137,0.2163846641778946,0.5645067691802979
24390,0.9673665165901184,0.9676005244255066,1.0,0.900891125202179
24391,0.05078125,0.09159617125988007,0.08755692839622498,0.15399278700351715
24392,0.08984375,0.11150884628295898,0.20503923296928406,0.17958107590675354
24393,0.3059895932674408,0.3906688988208771,0.4357588291168213,0.5080872178077698
24394,0.946533203125,0.9508464336395264,1.0,0.9362069368362427
24395,0.567138671875,0.6254003047943115,0.7988805174827576,0.7972550988197327
24396,0.304931640625,0.37713420391082764,0.4285714626312256,0.5060923099517822
24397,0.556884765625,0.6061415076255798,0.8308104276657104,0.7751080393791199
24398,0.712158203125,0.7125602960586548,0.7497180104255676,0.7651939392089844
24399,0.499755859375,0.5311017036437988,0.9037794470787048,0.7206231951713562
24400,0.580322265625,0.6219098567962646,0.86592036485672,0.7908437848091125
24401,0.580322265625,0.6046284437179565,0.86592036485672,0.6232470273971558
24402,0.261474609375,0.3441438376903534,0.4285714626312256,0.622879147529602
24403,0.956298828125,0.9611124396324158,0.7169486284255981,0.8199433088302612
24404,0.23046875,0.2943475842475891,0.32960182428359985,0.4910365045070648
24405,0.304931640625,0.3822104334831238,0.4285714626312256,0.4910886585712433
24406,0.08203125,0.10173654556274414,0.18448074162006378,0.2320186048746109
24407,0.703369140625,0.7063102722167969,0.7838867902755737,0.7778072357177734
24408,0.966796875,0.9675876498222351,0.7653606534004211,0.698633074760437
24409,0.953369140625,0.9556673765182495,1.0,0.8915160298347473
24410,0.2044270783662796,0.2587246596813202,0.5474918484687805,0.5444027185440063
24411,0.531982421875,0.5697493553161621,0.7462155222892761,0.5760906338691711
24412,0.606689453125,0.6398618221282959,1.0,0.7993894815444946
24413,0.146728515625,0.2140645533800125,0.48975956439971924,0.6528722047805786
24414,0.02083333395421505,0.0470784530043602,0.07821311801671982,0.19572056829929352
24415,0.488037109375,0.5682491064071655,0.6121358871459961,0.6966689825057983
24416,0.091796875,0.091796875,1.0,1.0
24417,0.44140625,0.4469960927963257,0.570875883102417,0.620177149772644
24418,0.567138671875,0.6231210231781006,0.7988805174827576,0.7772399187088013
24419,0.606689453125,0.6209111213684082,1.0,0.7571421265602112
24420,0.304931640625,0.35336601734161377,0.6151177287101746,0.5805395245552063
24421,0.365234375,0.4122001528739929,0.7136205434799194,0.7805179357528687
24422,0.08984375,0.1275019645690918,0.20503923296928406,0.245701864361763
24423,0.490234375,0.5287612676620483,0.8556691408157349,0.7285127639770508
24424,0.518798828125,0.5625090003013611,1.0,0.9069293141365051
24425,0.197998046875,0.2732095420360565,0.42267662286758423,0.5949277281761169
24426,0.556884765625,0.5810273885726929,0.8308104276657104,0.6494876742362976
24427,0.518798828125,0.5911523699760437,0.6967307925224304,0.7527085542678833
24428,0.9668782353401184,0.9671827554702759,0.9614850282669067,0.922435462474823
24429,0.712158203125,0.7125256657600403,0.8569586873054504,0.7827823162078857
24430,0.9507649540901184,0.9550211429595947,0.8898733854293823,0.815679132938385
24431,0.166259765625,0.22426371276378632,0.32645606994628906,0.40287816524505615
24432,0.150390625,0.19638079404830933,0.4525081515312195,0.5156033039093018
24433,0.1875,0.3877299129962921,0.11554483324289322,0.6038292646408081
24434,0.304931640625,0.35232338309288025,1.0,0.7853663563728333
24435,0.09375,0.1131235808134079,0.29608193039894104,0.24243640899658203
24436,0.499755859375,0.518455982208252,0.9037794470787048,0.7146298885345459
24437,0.956298828125,0.9598986506462097,0.7169486284255981,0.8294886946678162
24438,0.4375,0.46393346786499023,0.8609101176261902,0.8808348178863525
24439,0.393798828125,0.4499348998069763,0.5977610945701599,0.7596237063407898
24440,0.21875,0.2901962995529175,0.29608193039894104,0.49288615584373474
24441,0.374755859375,0.44917431473731995,0.5307213068008423,0.6770642399787903
24442,0.580322265625,0.6066442728042603,0.86592036485672,0.7900012731552124
24443,0.4375,0.4594150185585022,0.6735438704490662,0.5323313474655151
24444,0.0,0.01692708395421505,0.0,0.18065893650054932
24445,0.9507649540901184,0.9555178284645081,0.8898733854293823,0.805713415145874
24446,0.488037109375,0.549911379814148,0.6121358871459961,0.591626763343811
24447,0.580322265625,0.6160000562667847,0.86592036485672,0.7702135443687439
24448,0.260498046875,0.36757156252861023,0.34397661685943604,0.5388290286064148
24449,0.706298828125,0.7083152532577515,0.871160089969635,0.7025305032730103
24450,0.3599446713924408,0.3985084891319275,0.5626510977745056,0.5746212601661682
24451,0.2774251401424408,0.33808261156082153,0.8435737490653992,0.7206808924674988
24452,0.08203125,0.10245180130004883,0.7039180994033813,0.5415880084037781
24453,0.556884765625,0.5909507274627686,0.8308104276657104,0.8353021740913391
24454,0.962158203125,0.9625100493431091,0.9625431895256042,0.881379246711731
24455,0.712158203125,0.7125669717788696,0.7497180104255676,0.7037220001220703
24456,0.580322265625,0.6318776607513428,0.4618985950946808,0.5912640690803528
24457,0.431884765625,0.4647519886493683,0.7318407297134399,0.5846307277679443
24458,0.580322265625,0.6035382747650146,1.0,0.8566513061523438
24459,0.08984375,0.16386902332305908,0.20503923296928406,0.41363731026649475
24460,0.1106770858168602,0.19086337089538574,0.37429505586624146,0.5502732992172241
24461,0.091796875,0.12863598763942719,0.3948093354701996,0.5079526305198669
24462,0.44140625,0.4512864947319031,0.3754834830760956,0.5133525729179382
24463,0.110107421875,0.15183404088020325,0.3333333134651184,0.3043859302997589
24464,0.968017578125,0.9680667519569397,1.0,0.9763315916061401
24465,0.323974609375,0.39528337121009827,0.5520787835121155,0.7653346657752991
24466,0.706298828125,0.7097949981689453,0.871160089969635,0.800558865070343
24467,0.261474609375,0.3200841546058655,0.49493172764778137,0.6503631472587585
24468,0.967041015625,0.9676089286804199,0.9284793138504028,0.8398011326789856
24469,0.580322265625,0.6309084892272949,0.86592036485672,0.8191646337509155
24470,0.0,0.14509037137031555,0.0,0.30807021260261536
24471,0.110107421875,0.13061673939228058,0.20503923296928406,0.20600031316280365
24472,0.091796875,0.1418524533510208,0.30242785811424255,0.5381442904472351
24473,0.2774251401424408,0.34644457697868347,0.5188971757888794,0.6005580425262451
24474,0.968017578125,0.9680581092834473,1.0,0.7793569564819336
24475,0.2774251401424408,0.3734610080718994,0.36153164505958557,0.46872612833976746
24476,0.968017578125,0.9680711030960083,1.0,0.9470587372779846
24477,0.304931640625,0.38326939940452576,0.20000000298023224,0.3968261182308197
24478,0.953369140625,0.9590709209442139,0.7479812502861023,0.8632361888885498
24479,0.0625,0.0625,1.0,1.0
24480,0.2774251401424408,0.35120832920074463,0.8435737490653992,0.8257045149803162
24481,0.08203125,0.16928423941135406,0.10055973380804062,0.2294280081987381
24482,0.706298828125,0.7096825838088989,0.7139173746109009,0.6745631694793701
24483,0.2774251401424408,0.3281939923763275,0.5188971757888794,0.4988318979740143
24484,0.12109375,0.3040558099746704,0.10909166932106018,0.4476025700569153
24485,0.968017578125,0.9680664539337158,1.0,0.8622118234634399
24486,0.1875,0.3127509355545044,0.11554483324289322,0.4402120113372803
24487,0.304931640625,0.4013283848762512,0.4285714626312256,0.5569505095481873
24488,0.05078125,0.0599365234375,0.5307212471961975,0.5043776035308838
24489,0.953369140625,0.9580733776092529,0.912726640701294,0.7896490693092346
24490,0.9507649540901184,0.9535750150680542,0.8898733854293823,0.8682186007499695
24491,0.14453125,0.21047984063625336,0.5307213068008423,0.5593252778053284
24492,0.706298828125,0.7102823257446289,0.871160089969635,0.8955735564231873
24493,0.946533203125,0.954076886177063,0.8026000261306763,0.8076968789100647
24494,0.110107421875,0.22796382009983063,0.1428571492433548,0.42968031764030457
24495,0.455078125,0.5038303732872009,0.7342523336410522,0.6632328033447266
24496,0.166259765625,0.2352800816297531,0.22745199501514435,0.2901775538921356
24497,0.968017578125,0.9680777192115784,1.0,0.8117902874946594
24498,0.2774251401424408,0.3242560029029846,0.36153164505958557,0.343824565410614
24499,0.580322265625,0.6204805970191956,0.86592036485672,0.7102616429328918
24500,0.580322265625,0.6192513704299927,0.86592036485672,0.6057249903678894
24501,0.606689453125,0.6329600214958191,1.0,0.9512054920196533
24502,0.393798828125,0.4420475363731384,0.8579513430595398,0.8670796751976013
24503,0.606689453125,0.6375250816345215,1.0,0.780659556388855
24504,0.957763671875,0.9582819938659668,0.8271697163581848,0.8313133120536804
24505,0.263671875,0.34323376417160034,0.4707868993282318,0.7604730129241943
24506,0.946533203125,0.9534788727760315,0.8026000261306763,0.942344605922699
24507,0.951904296875,0.9568415880203247,0.7122209072113037,0.6639738082885742
24508,0.44921875,0.5030710697174072,0.5806522965431213,0.6282303333282471
24509,0.48828125,0.4892447292804718,0.5307213068008423,0.7080838084220886
24510,0.166259765625,0.24631759524345398,0.2626707851886749,0.424274742603302
24511,0.304931640625,0.34166350960731506,0.4285714626312256,0.30655667185783386
24512,0.2044270783662796,0.2646631598472595,0.2709710896015167,0.33158525824546814
24513,0.166259765625,0.2175588309764862,0.22745199501514435,0.2921355068683624
24514,0.150390625,0.19738203287124634,0.2783457934856415,0.32241854071617126
24515,0.580322265625,0.6177560687065125,0.86592036485672,0.7498963475227356
24516,0.0625,0.09671783447265625,0.15642623603343964,0.2248668521642685
24517,0.967041015625,0.9676749110221863,0.9284793138504028,0.900429368019104
24518,0.431884765625,0.48040279746055603,0.7318407297134399,0.7739344239234924
24519,0.556884765625,0.5937764048576355,0.5407800078392029,0.5234227776527405
24520,0.431884765625,0.4785953760147095,0.7318407297134399,0.6697685718536377
24521,0.606689453125,0.6390265822410583,1.0,0.8273589015007019
24522,0.197998046875,0.27147117257118225,0.29449179768562317,0.407402366399765
24523,0.556884765625,0.5879656076431274,0.8308104276657104,0.708670973777771
24524,0.260498046875,0.2660239040851593,0.9514426589012146,0.938318133354187
24525,0.212890625,0.2529902160167694,0.5679726600646973,0.5013620257377625
24526,0.344482421875,0.3858647346496582,0.5977610945701599,0.6861942410469055
24527,0.09375,0.17848359048366547,0.1821252405643463,0.36621055006980896
24528,0.2774251401424408,0.31979429721832275,0.36153164505958557,0.3517272472381592
24529,0.304931640625,0.38366109132766724,0.4285714626312256,0.549057126045227
24530,0.518798828125,0.5811288952827454,0.6967307925224304,0.7112979888916016
24531,0.701171875,0.7097421288490295,0.5150786638259888,0.6550033688545227
24532,0.518798828125,0.5660026669502258,0.6967307925224304,0.811281144618988
24533,0.466064453125,0.5483493804931641,0.5450960993766785,0.5334044098854065
24534,0.9673665165901184,0.9677554368972778,1.0,0.8861865401268005
24535,0.0,0.0364990234375,0.0,0.5508096218109131
24536,0.219970703125,0.23368345201015472,0.24530528485774994,0.26432955265045166
24537,0.466064453125,0.5526994466781616,0.5450960993766785,0.6337735652923584
24538,0.0,0.03750000149011612,0.0,0.17673857510089874
24539,0.966796875,0.9671924114227295,0.8748388290405273,0.6500849723815918
24540,0.300537109375,0.35859352350234985,0.5354781746864319,0.6085529923439026
24541,0.967041015625,0.9676262140274048,0.8122885227203369,0.8154510259628296
24542,0.03125,0.10895166546106339,0.09869397431612015,0.3941257894039154
24543,0.580322265625,0.6121833324432373,0.5636333227157593,0.5356345176696777
24544,0.556884765625,0.5836886763572693,0.8308104276657104,0.7317357063293457
24545,0.580322265625,0.6267223358154297,0.86592036485672,0.7814782857894897
24546,0.08203125,0.18780608475208282,0.10055973380804062,0.23137326538562775
24547,0.0625,0.15445107221603394,0.09622055292129517,0.33734822273254395
24548,0.2774251401424408,0.344724178314209,0.36153164505958557,0.33896368741989136
24549,0.951904296875,0.9584279656410217,0.7122209072113037,0.8133819103240967
24550,0.968017578125,0.9680776596069336,1.0,0.7418102622032166
24551,0.03125,0.03125,0.6309297680854797,0.6309297680854797
24552,0.560546875,0.5820777416229248,0.7653606534004211,0.5491217374801636
24553,0.2774251401424408,0.3875432312488556,0.23532335460186005,0.5042411088943481
24554,0.9466145634651184,0.953417181968689,0.6615661382675171,0.678292453289032
24555,0.0,0.008928571827709675,0.0,0.10086746513843536
24556,0.967041015625,0.9677369594573975,0.8122885227203369,0.9089210033416748
24557,0.2774251401424408,0.34388047456741333,0.4175114035606384,0.49844473600387573
24558,0.091796875,0.14165914058685303,0.3948093354701996,0.5406277179718018
24559,0.03125,0.06430891156196594,0.0488467775285244,0.13023485243320465
24560,0.2774251401424408,0.347655713558197,0.5188971757888794,0.6158000230789185
24561,0.05078125,0.071380615234375,0.10881868004798889,0.16222229599952698
24562,0.12109375,0.2380974292755127,0.19355076551437378,0.4710110127925873
24563,0.9668782353401184,0.9676143527030945,0.892719030380249,0.8880002498626709
24564,0.488037109375,0.549101710319519,0.6121358871459961,0.6527190804481506
24565,0.956298828125,0.9590089321136475,1.0,0.8332566618919373
24566,0.2774251401424408,0.3467158377170563,0.5188971757888794,0.6240951418876648
24567,0.490234375,0.5579861998558044,0.5961710214614868,0.6602873206138611
24568,0.556884765625,0.5926382541656494,0.8308104276657104,0.6888503432273865
24569,0.304931640625,0.3732230067253113,0.4285714626312256,0.5081026554107666
24570,0.556884765625,0.5978139638900757,0.8308104276657104,0.7965914011001587
24571,0.08203125,0.08203125,0.3631143569946289,0.30312466621398926
24572,0.2774251401424408,0.3542390465736389,0.36153164505958557,0.3559900224208832
24573,0.510498046875,0.5185688734054565,0.43686550855636597,0.6891070604324341
24574,0.228759765625,0.27872881293296814,0.276936799287796,0.3103592097759247
24575,0.03125,0.056884765625,0.09869397431612015,0.13873495161533356
