qid,err@3,err@10,ndcg@3,ndcg@10
22939,0.110107421875,0.15066374838352203,1.0,0.9258514046669006
22941,0.304931640625,0.35070183873176575,1.0,0.7617051601409912
22942,0.567138671875,0.5914052128791809,0.9225797057151794,0.8836354613304138
22943,0.110107421875,0.14464408159255981,1.0,0.8987714052200317
22944,0.44921875,0.455810546875,0.9224036931991577,0.9699816107749939
22945,0.304931640625,0.36018016934394836,1.0,0.8775948286056519
22946,0.03125,0.06149101257324219,0.29608193039894104,0.6766373515129089
22947,0.567138671875,0.609845757484436,0.7988805174827576,0.8955537676811218
22948,0.703369140625,0.7086409330368042,0.7838867902755737,0.8837904334068298
22949,0.556884765625,0.5923932790756226,0.8308104276657104,0.897718071937561
22950,0.228759765625,0.2777877151966095,0.6461858153343201,0.6406965255737305
22951,0.304931640625,0.3570541739463806,1.0,0.9697844386100769
22952,0.968017578125,0.9680390954017639,1.0,0.9046790599822998
22953,0.606689453125,0.637054443359375,1.0,1.0
22954,0.166259765625,0.23395586013793945,0.5307213068008423,0.636201798915863
22955,0.393798828125,0.42354702949523926,0.8579513430595398,0.8799238801002502
22956,0.580322265625,0.623345673084259,0.86592036485672,0.8427515029907227
22957,0.25390625,0.30991774797439575,0.5692896842956543,0.7633172273635864
22958,0.1106770858168602,0.15787382423877716,0.4437016248703003,0.6716613173484802
22959,0.0625,0.088134765625,0.4692787230014801,0.8529279232025146
22960,0.278564453125,0.35378947854042053,0.39664164185523987,0.6343956589698792
22961,0.9507649540901184,0.9549738168716431,0.8898733854293823,0.9063763618469238
22962,0.432373046875,0.44046109914779663,0.4040961265563965,0.6942456364631653
22963,0.946533203125,0.9479881525039673,1.0,0.8919633030891418
22964,0.940673828125,0.9485277533531189,0.7038999795913696,0.8960020542144775
22965,0.197998046875,0.26104414463043213,0.6871474981307983,0.8081090450286865
22966,0.08984375,0.13490961492061615,0.3333333134651184,0.4351869523525238
22967,0.263671875,0.263671875,1.0,1.0
22968,0.304931640625,0.35529839992523193,1.0,0.8464326858520508
22969,0.260498046875,0.3442510664463043,0.8026120662689209,0.9476170539855957
22970,0.260498046875,0.3128618001937866,0.8026120662689209,0.7111020684242249
22971,0.110107421875,0.2060113549232483,0.22686867415905,0.6078778505325317
22972,0.146728515625,0.210037499666214,0.48975956439971924,0.6897254586219788
22973,0.9673665165901184,0.9676440954208374,1.0,0.9991514086723328
22974,0.304931640625,0.3517615795135498,1.0,0.7632126808166504
22975,0.9673665165901184,0.9676395654678345,1.0,0.9906548857688904
22976,0.508056640625,0.511739194393158,0.6509066820144653,0.6497588157653809
22977,0.2044270783662796,0.2363543063402176,0.8472668528556824,0.921051561832428
22978,0.110107421875,0.23982533812522888,0.20503923296928406,0.6692231893539429
22979,0.0625,0.07950737327337265,0.3631143569946289,0.48973387479782104
22980,0.556884765625,0.5881293416023254,0.8308104276657104,0.8685352206230164
22981,0.110107421875,0.13263797760009766,1.0,1.0
22982,0.1875,0.1875,1.0,1.0
22983,0.228759765625,0.31196272373199463,0.6461858153343201,0.8252593278884888
22984,0.2774251401424408,0.34053143858909607,0.8435737490653992,0.8886994123458862
22985,0.212890625,0.26068758964538574,0.67329341173172,0.8415380120277405
22986,0.939453125,0.9427661299705505,0.8987017273902893,0.9075267314910889
22987,0.304931640625,0.33589330315589905,1.0,0.7660719156265259
22988,0.08203125,0.11913961172103882,0.7039180994033813,0.7524455189704895
22989,0.08203125,0.2069990038871765,0.14433082938194275,0.5330304503440857
22990,0.0625,0.08447265625,0.1854327917098999,0.3609254062175751
22991,0.304931640625,0.3865734934806824,0.49493172764778137,0.7938262224197388
22992,0.956298828125,0.9584842324256897,1.0,0.9908202886581421
22993,0.146728515625,0.23608878254890442,0.48975956439971924,0.818085789680481
22994,0.304931640625,0.35788586735725403,1.0,0.7444955706596375
22995,0.490234375,0.5471091866493225,0.6884825229644775,0.775639533996582
22996,0.5757649540901184,0.5814553499221802,0.5708760023117065,0.7497442364692688
22997,0.962158203125,0.9623844027519226,0.9625431895256042,0.9407815933227539
22998,0.9444172978401184,0.9502811431884766,0.9456308484077454,0.9798726439476013
22999,0.366455078125,0.3723452389240265,0.49644073843955994,0.609056830406189
23000,0.9444172978401184,0.9526104927062988,0.7589633464813232,0.9349265098571777
23001,0.962158203125,0.9626919627189636,0.8420895934104919,0.9275112748146057
23002,0.02083333395421505,0.12231381237506866,0.07821311801671982,0.5814597606658936
23003,0.560546875,0.5724474191665649,0.8838695287704468,0.8686697483062744
23004,0.510498046875,0.5140371322631836,0.6676040887832642,0.725057065486908
23005,0.967041015625,0.9672921299934387,1.0,0.9885992407798767
23006,0.567138671875,0.6034455299377441,0.7988805174827576,0.857829749584198
23007,0.659423828125,0.6629204750061035,0.8254533410072327,0.8543487787246704
23008,0.304931640625,0.37491902709007263,1.0,0.953712522983551
23009,0.518798828125,0.5668070316314697,1.0,0.9948079586029053
23010,0.110107421875,0.110107421875,1.0,1.0
23011,0.556884765625,0.5989099740982056,0.8308104276657104,0.9480276703834534
23012,0.304931640625,0.3300743103027344,1.0,0.9520727396011353
23013,0.580322265625,0.6061817407608032,1.0,0.8768560290336609
23014,0.212890625,0.3191647529602051,0.3493700623512268,0.6318348050117493
23015,0.05078125,0.09276159107685089,0.5307212471961975,0.6837935447692871
23016,0.110107421875,0.1414012610912323,1.0,0.7778722643852234
23017,0.580322265625,0.6332341432571411,0.5636333227157593,0.812854528427124
23018,0.08984375,0.12468564510345459,0.3333333134651184,0.4005357027053833
23019,0.967041015625,0.9675597548484802,0.9284793138504028,0.9525395035743713
23020,0.943115234375,0.9492457509040833,0.819014847278595,0.9261377453804016
23021,0.146728515625,0.18897776305675507,0.3012597858905792,0.4329072833061218
23022,0.02083333395421505,0.0415852889418602,0.12103812396526337,0.2068890482187271
23023,0.0,0.02294921875,0.0,0.4574945271015167
23024,0.956298828125,0.9594351053237915,1.0,0.919908881187439
23025,0.4375,0.4556446075439453,0.7452524900436401,0.7935450077056885
23026,0.08203125,0.08203125,0.9197208285331726,0.9197208285331726
23027,0.304931640625,0.3691786527633667,1.0,0.9969764351844788
23028,0.2774251401424408,0.3533226549625397,0.4175114035606384,0.5580249428749084
23029,0.2774251401424408,0.34449729323387146,0.8435737490653992,0.7367599606513977
23030,0.946533203125,0.9502866268157959,0.8793432712554932,0.8434287905693054
23031,0.304931640625,0.34486597776412964,1.0,0.9116281867027283
23032,0.166259765625,0.25377774238586426,0.5307213068008423,0.7496382594108582
23033,0.943115234375,0.9471431970596313,0.819014847278595,0.7946887016296387
23034,0.946533203125,0.948042631149292,1.0,0.9781337976455688
23035,0.946533203125,0.9524921774864197,0.8793432712554932,0.9145863652229309
23036,0.567138671875,0.5697871446609497,1.0,0.9921161532402039
23037,0.212890625,0.2482655644416809,0.8789618015289307,0.8577721118927002
23038,0.03125,0.07232999801635742,0.11699506640434265,0.3256986439228058
23039,0.110107421875,0.13767682015895844,0.5158474445343018,0.5299273133277893
23041,0.146728515625,0.21902789175510406,0.48975956439971924,0.6436553001403809
23042,0.110107421875,0.2064974009990692,0.20503923296928406,0.5745114088058472
23043,0.967041015625,0.9673360586166382,1.0,0.9135178923606873
23044,0.260498046875,0.3375924229621887,0.8026120662689209,0.8143462538719177
23045,0.556884765625,0.5962214469909668,0.8308104276657104,0.9196597337722778
23046,0.393798828125,0.4589901566505432,0.5977610945701599,0.7618447542190552
23047,0.967041015625,0.9673070907592773,1.0,0.9673178791999817
23048,0.956298828125,0.9599846601486206,1.0,1.0
23049,0.304931640625,0.35620465874671936,1.0,0.9265254735946655
23050,0.304931640625,0.3714071214199066,1.0,0.943237841129303
23051,0.499755859375,0.5451328754425049,0.9037794470787048,0.9373926520347595
23052,0.580322265625,0.610970675945282,1.0,0.9592548608779907
23053,0.12109375,0.17479674518108368,0.3910655975341797,0.6134212613105774
23054,0.4375,0.4828244745731354,0.6735438704490662,0.7780847549438477
23055,0.953369140625,0.9576762914657593,0.912726640701294,0.9897626638412476
23056,0.701904296875,0.7075203061103821,0.7402501106262207,0.7559667825698853
23057,0.228759765625,0.2891795039176941,0.6461858153343201,0.8409494757652283
23058,0.3599446713924408,0.4018949568271637,0.6497723460197449,0.769093930721283
23059,0.943115234375,0.9484902024269104,0.9313938021659851,0.9145879745483398
23060,0.2774251401424408,0.3545195162296295,0.257824569940567,0.4035586714744568
23061,0.455078125,0.5371438264846802,0.5115761756896973,0.7148964405059814
23062,0.0625,0.18860667943954468,0.10055973380804062,0.47123080492019653
23063,0.466064453125,0.5104615688323975,0.7823625802993774,0.8473151922225952
23064,0.2774251401424408,0.32700544595718384,0.8435737490653992,0.9571710228919983
23065,0.9444172978401184,0.9495705962181091,0.9456308484077454,0.9723894000053406
23066,0.9444172978401184,0.9484448432922363,0.9456308484077454,0.963283360004425
23067,0.110107421875,0.16666370630264282,0.3951442539691925,0.7121952176094055
23068,0.09375,0.12430943548679352,0.35098522901535034,0.47532013058662415
23069,0.606689453125,0.6413683891296387,1.0,0.9968765377998352
23070,0.953369140625,0.9571319222450256,1.0,0.9794657230377197
23071,0.531982421875,0.5830560922622681,0.48571667075157166,0.7310567498207092
23072,0.490234375,0.5110998153686523,0.8556691408157349,0.9467535018920898
23073,0.393798828125,0.44099172949790955,0.8579513430595398,0.9102591872215271
23074,0.110107421875,0.17467264831066132,0.3951442539691925,0.6812273263931274
23075,0.967041015625,0.9673216342926025,0.9284793138504028,0.9037277698516846
23076,0.9507649540901184,0.9549738764762878,0.8898733854293823,0.9063763618469238
23077,0.959228515625,0.9596542119979858,0.8722942471504211,0.9103072285652161
23078,0.946533203125,0.9541656374931335,0.8026000261306763,0.7861765027046204
23079,0.518798828125,0.5648203492164612,1.0,0.9885308742523193
23080,0.2774251401424408,0.3133191466331482,0.8435737490653992,0.9400352239608765
23081,0.110107421875,0.1588565558195114,0.5158474445343018,0.6943559050559998
23082,0.959228515625,0.9597169160842896,0.8722942471504211,0.9168556332588196
23083,0.091796875,0.1189216673374176,0.3948093354701996,0.43335312604904175
23084,0.0625,0.12173032760620117,0.24207624793052673,0.6540433764457703
23085,0.943115234375,0.9459421634674072,0.819014847278595,0.7490109205245972
23086,0.488037109375,0.5344716310501099,0.7069194316864014,0.7512657642364502
23087,0.940673828125,0.9460121989250183,0.7038999795913696,0.7618829607963562
23088,0.431884765625,0.47631752490997314,0.7318407297134399,0.8766520619392395
23089,0.1106770858168602,0.15150564908981323,0.4437016248703003,0.679036021232605
23090,0.953369140625,0.9587916731834412,0.912726640701294,0.9213442802429199
23091,0.146728515625,0.24191133677959442,0.3012597858905792,0.6071916222572327
23092,0.304931640625,0.373099148273468,1.0,0.9538741111755371
23093,0.2774251401424408,0.34652575850486755,0.5188971757888794,0.7639829516410828
23094,0.953369140625,0.9574400782585144,0.912726640701294,0.9720193147659302
23095,0.967041015625,0.9675370454788208,0.8122885227203369,0.8934788107872009
23096,0.091796875,0.1824185848236084,0.255120187997818,0.6728209853172302
23097,0.946533203125,0.9503212571144104,1.0,0.9556276798248291
23098,0.943115234375,0.9459318518638611,0.9313938021659851,0.9393495321273804
23099,0.0625,0.10672200471162796,0.23463936150074005,0.3265208601951599
23100,0.9507649540901184,0.9553163051605225,0.7292529344558716,0.8412379622459412
23101,0.9444172978401184,0.9484255909919739,0.9456308484077454,0.9793034791946411
23102,0.166259765625,0.21448852121829987,0.5307213068008423,0.6826224327087402
23103,0.0625,0.0625,1.0,1.0
23104,0.08203125,0.0946197509765625,0.7039180994033813,0.7178308367729187
23105,0.9388020634651184,0.9439574480056763,0.7410414814949036,0.8825225234031677
23106,0.3599446713924408,0.40886107087135315,0.8075588941574097,0.8537703156471252
23107,0.02083333395421505,0.04801543802022934,0.23463936150074005,0.4842680096626282
23108,0.606689453125,0.6342018842697144,1.0,0.9154629111289978
23109,0.3599446713924408,0.41893309354782104,0.6497723460197449,0.8405488729476929
23110,0.3599446713924408,0.4261183738708496,0.5626510977745056,0.7895206809043884
23111,0.2044270783662796,0.2330765426158905,0.5474918484687805,0.6777582168579102
23112,0.228759765625,0.277218759059906,0.6461858153343201,0.7573139667510986
23113,0.606689453125,0.635669469833374,1.0,0.8483604788780212
23114,0.556884765625,0.5975129008293152,0.8308104276657104,0.9215512275695801
23115,0.304931640625,0.35458141565322876,1.0,0.7913443446159363
23116,0.1875,0.28757578134536743,0.4692787230014801,0.7186340093612671
23117,0.12109375,0.175812765955925,0.3910655975341797,0.5771622657775879
23118,0.580322265625,0.6142652034759521,0.86592036485672,0.8569054007530212
23119,0.263671875,0.2682563066482544,0.90728360414505,0.9631043672561646
23120,0.300537109375,0.3493998050689697,0.5354781746864319,0.6639087796211243
23121,0.2774251401424408,0.3356667160987854,0.8435737490653992,0.9468395113945007
23122,0.939453125,0.9412915706634521,0.8987017273902893,0.8551682233810425
23123,0.956298828125,0.9583152532577515,1.0,0.9468865394592285
23124,0.959228515625,0.9595043063163757,0.8722942471504211,0.8279047608375549
23125,0.703369140625,0.7085354328155518,0.7838867902755737,0.8739156126976013
23126,0.951904296875,0.9572675228118896,0.8690900206565857,0.9319833517074585
23127,0.03125,0.08343546837568283,0.15273310244083405,0.46045732498168945
23128,0.0625,0.0625,1.0,1.0
23129,0.556884765625,0.6066368222236633,0.5407800078392029,0.749933660030365
23130,0.619873046875,0.6229027509689331,0.6602633595466614,0.7284758687019348
23132,0.490234375,0.568435788154602,0.5961710214614868,0.7545704245567322
23133,0.228759765625,0.27706944942474365,0.7660098671913147,0.9124031662940979
23134,0.571533203125,0.5776786208152771,0.6093400716781616,0.7368674278259277
23135,0.05078125,0.07964181900024414,0.5307212471961975,0.6150423884391785
23136,0.197998046875,0.27212920784950256,0.6871474981307983,0.7177796363830566
23137,0.19921875,0.27971693873405457,0.3483913838863373,0.6426077485084534
23138,0.14453125,0.20997421443462372,0.32645606994628906,0.5764361619949341
23139,0.940673828125,0.9477249383926392,0.771205723285675,0.8615170121192932
23140,0.03125,0.0602199025452137,0.15273310244083405,0.4625248908996582
23141,0.2774251401424408,0.34343159198760986,0.8435737490653992,0.7686991691589355
23142,0.304931640625,0.36086905002593994,1.0,0.7882823944091797
23143,0.1458333432674408,0.21914707124233246,0.23463937640190125,0.5072417259216309
23144,0.197998046875,0.2646581530570984,0.42267662286758423,0.6491057276725769
23145,0.2774251401424408,0.3484099805355072,0.8435737490653992,0.8538222908973694
23146,0.2774251401424408,0.3290840983390808,0.8435737490653992,0.7293025255203247
23148,0.0,0.0078125,0.0,0.31546488404273987
23149,0.946533203125,0.9537193179130554,0.8026000261306763,0.9449663162231445
23150,0.518798828125,0.5669171810150146,0.8046129941940308,0.9275313019752502
23151,0.9466145634651184,0.9522292017936707,0.8072783350944519,0.9104468822479248
23152,0.0,0.0062500000931322575,0.0,0.07961179316043854
23153,0.02083333395421505,0.0461215078830719,0.23463936150074005,0.4181463122367859
23154,0.3599446713924408,0.4044252932071686,0.8075588941574097,0.8098862171173096
23155,0.304931640625,0.37558865547180176,1.0,0.9575862288475037
23156,0.946533203125,0.9549239873886108,0.7083972692489624,0.8936509490013123
23157,0.967041015625,0.9673576354980469,1.0,0.933341383934021
23158,0.951904296875,0.9546202421188354,0.9521908760070801,0.946372389793396
23159,0.9507649540901184,0.9532906413078308,0.974961519241333,0.9727394580841064
23160,0.110107421875,0.16475296020507812,0.3951442539691925,0.6259016394615173
23161,0.2122395932674408,0.29651251435279846,0.36153164505958557,0.6430525779724121
23162,0.9507649540901184,0.9554604887962341,0.8898733854293823,0.777839720249176
23163,0.2774251401424408,0.3378867506980896,0.8435737490653992,0.6877334713935852
23164,0.1875,0.19384765625,0.8262346386909485,0.9131173491477966
23165,0.304931640625,0.37751761078834534,1.0,1.0
23167,0.3599446713924408,0.4159373342990875,0.6497723460197449,0.8360688090324402
23168,0.956298828125,0.9593254923820496,1.0,0.9901675581932068
23169,0.946533203125,0.9541248679161072,0.6577322483062744,0.8837403655052185
23170,0.499755859375,0.5407136082649231,0.7271926999092102,0.7542982697486877
23171,0.02083333395421505,0.02083333395421505,0.5,0.5
23172,0.946533203125,0.9514386057853699,1.0,0.9573447704315186
23173,0.228759765625,0.2891795039176941,0.6461858153343201,0.7092503905296326
23174,0.959228515625,0.9600054025650024,0.7631344795227051,0.9179349541664124
23175,0.05078125,0.09104197472333908,0.2737712264060974,0.5807847380638123
23176,0.263671875,0.3399524986743927,0.7653606534004211,0.7637608051300049
23177,0.499755859375,0.5588316917419434,0.7271926999092102,0.8781195878982544
23178,0.2774251401424408,0.3297888934612274,0.8435737490653992,0.8965529203414917
23179,0.946533203125,0.9525421261787415,0.8793432712554932,0.9592613577842712
23180,0.9673665165901184,0.9676917195320129,1.0,0.9660778045654297
23181,0.393798828125,0.40974271297454834,0.8579513430595398,0.85185706615448
23182,0.304931640625,0.36023303866386414,1.0,0.9240332245826721
23183,0.393798828125,0.46301034092903137,0.5977610945701599,0.8767791986465454
23184,0.091796875,0.10552978515625,0.7653606534004211,0.9674680233001709
23185,0.260498046875,0.3023664355278015,0.8026120662689209,0.7779039740562439
23186,0.0,0.03107757493853569,0.0,0.3552536070346832
23188,0.943115234375,0.9514660835266113,0.7475366592407227,0.877277672290802
23189,0.571533203125,0.5744212865829468,0.7592076063156128,0.7849579453468323
23190,0.304931640625,0.36871036887168884,1.0,0.8623893857002258
23191,0.962158203125,0.9625461101531982,0.9625431895256042,0.9060904383659363
23193,0.556884765625,0.597139835357666,0.8308104276657104,0.9184134602546692
23194,0.518798828125,0.5332661271095276,0.8046129941940308,0.6683427691459656
23195,0.263671875,0.32802340388298035,0.4707868993282318,0.6656349301338196
23196,0.091796875,0.11136627197265625,0.7653606534004211,0.9267581105232239
23197,0.02083333395421505,0.02083333395421505,0.5,0.5
23198,0.300537109375,0.3412765860557556,0.5354781746864319,0.7122937440872192
23199,0.197998046875,0.2679131031036377,0.6871474981307983,0.8166157007217407
23200,0.953369140625,0.9574403166770935,0.912726640701294,0.9750428199768066
23201,0.567138671875,0.6017798781394958,0.7988805174827576,0.8287517428398132
23202,0.08203125,0.1961096227169037,0.15969696640968323,0.5758039951324463
23203,0.967041015625,0.9675887227058411,0.8122885227203369,0.9170055985450745
23204,0.304931640625,0.37269333004951477,1.0,0.9112986922264099
23205,0.946533203125,0.953056812286377,0.8793432712554932,0.9653230309486389
23206,0.304931640625,0.38934850692749023,0.4285714626312256,0.7112768292427063
23207,0.228759765625,0.30231547355651855,0.3974803686141968,0.5214201807975769
23208,0.962158203125,0.9624379873275757,0.9625431895256042,0.9500067830085754
23209,0.0625,0.0763636976480484,0.24207624793052673,0.3058435916900635
23210,0.580322265625,0.6308073997497559,0.5636333227157593,0.7946537733078003
23211,0.946533203125,0.9527140259742737,0.8026000261306763,0.9133362174034119
23212,0.466064453125,0.4932160973548889,1.0,0.9725837707519531
23213,0.488037109375,0.5198485851287842,0.8785831332206726,0.8321216702461243
23214,0.146728515625,0.20094168186187744,0.48975956439971924,0.7378208041191101
23215,0.166259765625,0.23630665242671967,0.5307213068008423,0.6718361973762512
23216,0.228759765625,0.29634034633636475,0.3198178708553314,0.48658329248428345
23217,0.23046875,0.285597026348114,0.47306913137435913,0.596649706363678
23218,0.091796875,0.13192272186279297,0.3948093354701996,0.5944571495056152
23219,0.0,0.008928571827709675,0.0,0.3333333432674408
23220,0.0625,0.0625,1.0,1.0
23221,0.166259765625,0.2531883418560028,0.5307213068008423,0.7857598066329956
23222,0.2774251401424408,0.35622286796569824,0.36153164505958557,0.5379637479782104
23223,0.14453125,0.21789242327213287,0.5307213068008423,0.7439573407173157
23224,0.304931640625,0.3691786527633667,1.0,0.9969764351844788
23225,0.0625,0.0690104141831398,0.24207624793052673,0.3149484694004059
23226,0.951904296875,0.9540071487426758,0.8690900206565857,0.8163333535194397
23227,0.946533203125,0.9497662782669067,1.0,0.995954692363739
23228,0.23828125,0.2866794466972351,0.7039180994033813,0.7258581519126892
23229,0.197998046875,0.2879749536514282,0.42267662286758423,0.7428691387176514
23230,0.946533203125,0.9526152610778809,0.8793432712554932,0.9577193856239319
23231,0.5757650136947632,0.579357385635376,0.763222336769104,0.7802988886833191
23232,0.304931640625,0.36306625604629517,1.0,0.8625913262367249
23234,0.23046875,0.3180159330368042,0.23505397140979767,0.5232700705528259
23235,0.9444172978401184,0.9525856971740723,0.544137716293335,0.7303402423858643
23236,0.466064453125,0.5179691314697266,0.7823625802993774,0.9306796789169312
23237,0.499755859375,0.5659893751144409,0.7271926999092102,0.8905104994773865
23238,0.3599446713924408,0.40547171235084534,0.8075588941574097,0.8702601194381714
23239,0.490234375,0.5990176200866699,0.38805168867111206,0.6329713463783264
23240,0.197998046875,0.25870534777641296,0.6871474981307983,0.7174605131149292
23241,0.659423828125,0.6628661751747131,0.8254533410072327,0.8263686299324036
23242,0.556884765625,0.5807618498802185,0.9594535827636719,0.9352689385414124
23243,0.503173828125,0.5050111413002014,0.6796846985816956,0.6515741944313049
23244,0.946533203125,0.9518681168556213,0.8026000261306763,0.8589460849761963
23245,0.393798828125,0.4382794499397278,0.8579513430595398,0.8998250961303711
23246,0.05078125,0.14985798299312592,0.17690707743167877,0.6690235733985901
23247,0.967041015625,0.9674534201622009,1.0,0.9738811254501343
23248,0.2774251401424408,0.33171483874320984,0.8435737490653992,0.929538905620575
23249,0.110107421875,0.1462436020374298,1.0,1.0
23250,0.166259765625,0.2299097776412964,0.5307213068008423,0.7204440832138062
23251,0.219970703125,0.26368477940559387,0.49370092153549194,0.5768281817436218
23252,0.197998046875,0.2708483636379242,0.6871474981307983,0.8663790822029114
23253,0.518798828125,0.5685727000236511,0.8046129941940308,0.9268251657485962
23254,0.304931640625,0.3717467784881592,1.0,0.9069212675094604
23255,0.212890625,0.2508934736251831,0.8789618015289307,0.9672694206237793
23256,0.02083333395421505,0.09656715393066406,0.07821311801671982,0.42328140139579773
23257,0.518798828125,0.5675325989723206,1.0,0.9658516645431519
23258,0.1875,0.2092633992433548,0.5562983751296997,0.7417311668395996
23259,0.9507649540901184,0.9543960094451904,0.8898733854293823,0.945807158946991
23260,0.94140625,0.950047492980957,0.7200049757957458,0.8282225131988525
23261,0.2774251401424408,0.34437698125839233,0.8435737490653992,0.7768605351448059
23262,0.5694173574447632,0.5731232762336731,0.7048385143280029,0.7663997411727905
23263,0.951171875,0.9565115571022034,0.8472716808319092,0.9316129684448242
23264,0.304931640625,0.3669155538082123,1.0,0.987639844417572
23265,0.956298828125,0.9599846601486206,1.0,1.0
23266,0.580322265625,0.6288103461265564,0.86592036485672,0.9729061126708984
23267,0.304931640625,0.3709973096847534,1.0,0.9053206443786621
23268,0.9673665165901184,0.9677228331565857,1.0,0.9887845516204834
23269,0.9668782353401184,0.9676188230514526,0.7810032963752747,0.7805078029632568
23270,0.943115234375,0.9493073225021362,0.819014847278595,0.8688686490058899
23271,0.9673665165901184,0.9676440954208374,1.0,0.9991514086723328
23272,0.956298828125,0.9588941335678101,1.0,0.9800340533256531
23273,0.9673665165901184,0.9676440954208374,1.0,0.9991514086723328
23274,0.606689453125,0.6370562314987183,1.0,0.9579008221626282
23275,0.9507649540901184,0.9549738764762878,0.8898733854293823,0.9063763618469238
23276,0.953369140625,0.9575936198234558,0.912726640701294,0.9414149522781372
23277,0.9673665165901184,0.9676440954208374,1.0,0.9991514086723328
23278,0.606689453125,0.637054443359375,1.0,1.0
23279,0.951904296875,0.9544869065284729,0.9521908760070801,0.9550381898880005
23280,0.953369140625,0.9565330743789673,1.0,0.9982182383537292
23281,0.956298828125,0.9587621688842773,1.0,0.9579256176948547
23282,0.953369140625,0.9562329053878784,1.0,0.923751175403595
23283,0.946533203125,0.9502193927764893,1.0,0.9913243651390076
23284,0.9673665165901184,0.9676440954208374,1.0,0.9991514086723328
23285,0.956298828125,0.9588941335678101,1.0,0.9800340533256531
23286,0.556884765625,0.5997729301452637,0.8308104276657104,0.6657735705375671
23287,0.304931640625,0.3237886428833008,1.0,0.6927849650382996
23288,0.166259765625,0.20757067203521729,0.32645606994628906,0.3266284465789795
23289,0.490234375,0.5164231657981873,0.8556691408157349,0.7286322712898254
23290,0.488037109375,0.5550998449325562,0.6121358871459961,0.789101779460907
23291,0.323974609375,0.3618318438529968,0.47805625200271606,0.4467448592185974
23292,0.556884765625,0.6040560007095337,0.8308104276657104,0.6990784406661987
23293,0.03125,0.0458984375,0.38685283064842224,0.6509209871292114
23294,0.606689453125,0.6410331726074219,1.0,0.8163303136825562
23295,0.556884765625,0.6005696058273315,0.8308104276657104,0.7292945384979248
23296,0.08203125,0.21117272973060608,0.10055973380804062,0.262516587972641
23297,0.166259765625,0.23510229587554932,0.14805001020431519,0.21312002837657928
23298,0.261474609375,0.2975240647792816,0.6151177287101746,0.6231557726860046
23299,0.12109375,0.18839561939239502,0.24055138230323792,0.3863881826400757
23300,0.304931640625,0.3477628529071808,1.0,0.7371683120727539
23301,0.966796875,0.966845691204071,0.9799711108207703,0.9387927651405334
23302,0.9444172978401184,0.9513211250305176,0.7589633464813232,0.8586653470993042
23303,0.431884765625,0.47301599383354187,0.4763599932193756,0.5163174867630005
23304,0.212890625,0.212890625,0.28110769391059875,0.1801556944847107
23305,0.260498046875,0.2971140742301941,0.8026120662689209,0.5534250736236572
23306,0.606689453125,0.6304119229316711,0.6509066820144653,0.6352987289428711
23307,0.0625,0.13286174833774567,0.15642623603343964,0.3716592490673065
23308,0.431884765625,0.4757453501224518,0.7318407297134399,0.6750693321228027
23309,0.0,0.04868391528725624,0.0,0.395314484834671
23310,0.2774251401424408,0.31895408034324646,0.4175114035606384,0.4154801070690155
23311,0.706298828125,0.7080909609794617,0.871160089969635,0.775842010974884
23312,0.488037109375,0.5481268167495728,0.6121358871459961,0.6527693867683411
23313,0.951904296875,0.9575547575950623,0.7122209072113037,0.6810106635093689
23314,0.393798828125,0.4489001929759979,0.5977610945701599,0.5997313857078552
23315,0.580322265625,0.6282379627227783,0.86592036485672,0.7955470681190491
23316,0.25390625,0.3166103959083557,0.39664164185523987,0.5934500694274902
23317,0.567138671875,0.6265522837638855,0.7988805174827576,0.8314606547355652
23318,0.304931640625,0.3552773594856262,0.6151177287101746,0.7201359272003174
23319,0.946533203125,0.9519895315170288,0.8026000261306763,0.6964154243469238
23320,0.228759765625,0.2911345660686493,0.276936799287796,0.34513965249061584
23321,0.3599446713924408,0.42360299825668335,0.5626510977745056,0.660416305065155
23322,0.150390625,0.17332826554775238,0.5364180207252502,0.5085163116455078
23323,0.228759765625,0.27520325779914856,0.6461858153343201,0.7090287208557129
23324,0.3599446713924408,0.38084763288497925,0.5626510977745056,0.4941622316837311
23325,0.0,0.015625,0.0,0.20210735499858856
23326,0.0,0.01901041716337204,0.0,0.10512364655733109
23327,0.455078125,0.4756234586238861,0.5115761756896973,0.37911537289619446
23328,0.518798828125,0.573388934135437,0.6967307925224304,0.7289226055145264
23329,0.606689453125,0.6289504766464233,1.0,0.6639019250869751
23330,0.951904296875,0.9572795629501343,0.8690900206565857,0.8932985067367554
23331,0.499755859375,0.5830696821212769,0.629690945148468,0.7045943737030029
23332,0.947998046875,0.9505701065063477,0.9146330952644348,0.8010149002075195
23333,0.304931640625,0.3804042339324951,0.30563369393348694,0.4871237576007843
23334,0.0,0.0,0.0,0.0
23335,0.943115234375,0.9471825957298279,0.9313938021659851,0.9036728739738464
23336,0.567138671875,0.613044261932373,0.37281090021133423,0.4208075702190399
23337,0.450927734375,0.46261394023895264,0.3482339084148407,0.7103681564331055
23338,0.260498046875,0.3729495406150818,0.22389668226242065,0.46422079205513
23339,0.323974609375,0.3618318438529968,0.47805625200271606,0.4467448592185974
23340,0.393798828125,0.44225165247917175,0.690318763256073,0.770227313041687
23341,0.08203125,0.1572594940662384,0.11613046377897263,0.2740454375743866
23342,0.304931640625,0.3888842463493347,0.4285714626312256,0.5447079539299011
23343,0.567138671875,0.6063631772994995,0.7988805174827576,0.7276510000228882
23344,0.2774251401424408,0.3651895523071289,0.36153164505958557,0.6107410192489624
23345,0.3599446713924408,0.401439905166626,0.5626510977745056,0.5026968717575073
23346,0.499755859375,0.5500531792640686,0.629690945148468,0.7443914413452148
23347,0.95703125,0.9576736688613892,0.7039180397987366,0.7169349789619446
23348,0.606689453125,0.633916974067688,1.0,0.8142845034599304
23349,0.14453125,0.233867809176445,0.5307213068008423,0.7799082398414612
23350,0.967041015625,0.9674862623214722,0.9284793138504028,0.904346764087677
23351,0.431884765625,0.47649481892585754,0.7318407297134399,0.7609609961509705
23352,0.580322265625,0.6283062696456909,0.86592036485672,0.7870287299156189
23353,0.488037109375,0.5517173409461975,0.6121358871459961,0.6949837803840637
23354,0.499755859375,0.5528575778007507,0.629690945148468,0.5385369658470154
23355,0.260498046875,0.3236229121685028,0.8026120662689209,0.7456797957420349
23356,0.14453125,0.19750109314918518,0.5307213068008423,0.4986995756626129
23357,0.1875,0.2081298828125,0.5562983751296997,0.5248390436172485
23358,0.4375,0.48351651430130005,0.5419421792030334,0.6309272050857544
23359,0.956298828125,0.9611011743545532,0.8195018768310547,0.8461421728134155
23360,0.228759765625,0.27240198850631714,0.6461858153343201,0.6791257858276367
23361,0.260498046875,0.3222302794456482,0.34397661685943604,0.4045971930027008
23362,0.518798828125,0.560808002948761,1.0,0.87176513671875
23363,0.518798828125,0.5684967041015625,0.6967307925224304,0.6659995913505554
23364,0.518798828125,0.5713752508163452,0.6967307925224304,0.7064638137817383
23365,0.304931640625,0.38910335302352905,0.4285714626312256,0.4989386200904846
23366,0.0625,0.0625,1.0,1.0
23367,0.05078125,0.17599467933177948,0.10881868004798889,0.42190343141555786
23368,0.606689453125,0.6223645806312561,1.0,0.7938477396965027
23369,0.23828125,0.2843320667743683,0.7039180994033813,0.7561551332473755
23370,0.091796875,0.15346109867095947,0.255120187997818,0.3261534869670868
23371,0.499755859375,0.5419020056724548,0.629690945148468,0.6143563985824585
23372,0.580322265625,0.6151120066642761,0.86592036485672,0.6844868659973145
23373,0.518798828125,0.5710474252700806,0.6967307925224304,0.7402361631393433
23374,0.228759765625,0.2502638101577759,0.6461858153343201,0.38202965259552
23375,0.968017578125,0.9680709838867188,1.0,0.8671332001686096
23376,0.571533203125,0.5774112939834595,0.6093400716781616,0.6447148323059082
23377,0.110107421875,0.15312796831130981,0.3333333134651184,0.43354013562202454
23378,0.466064453125,0.5094454288482666,0.5450960993766785,0.4450088441371918
23379,0.197998046875,0.2776993215084076,0.29449179768562317,0.4179518222808838
23380,0.5694173574447632,0.5717770457267761,0.7453632354736328,0.7568495273590088
23381,0.146728515625,0.20610618591308594,0.3012597858905792,0.39754238724708557
23382,0.393798828125,0.4390426576137543,0.5977610945701599,0.5959007740020752
23383,0.110107421875,0.27117279171943665,0.09298666566610336,0.39328113198280334
23384,0.531982421875,0.5676665306091309,0.7462155222892761,0.5510005950927734
23385,0.300537109375,0.3659120798110962,0.4636814594268799,0.5554200410842896
23386,0.968017578125,0.9680668711662292,1.0,0.8369718790054321
23387,0.606689453125,0.6375641226768494,1.0,0.8344817757606506
23388,0.12109375,0.16033679246902466,0.3910655975341797,0.517456591129303
23389,0.08203125,0.12769317626953125,0.27814918756484985,0.3947378993034363
23390,0.393798828125,0.43973129987716675,0.8579513430595398,0.8426675796508789
23391,0.197998046875,0.3127358555793762,0.29449179768562317,0.49256736040115356
23392,0.956298828125,0.960232675075531,1.0,0.936252772808075
23393,0.304931640625,0.304931640625,1.0,1.0
23394,0.2044270783662796,0.3047684133052826,0.5474918484687805,0.7453597784042358
23395,0.967041015625,0.9674100875854492,0.9284793138504028,0.8879204988479614
23396,0.943359375,0.9485750794410706,0.7371450066566467,0.6697303652763367
23397,0.518798828125,0.571597695350647,0.6967307925224304,0.5967791080474854
23398,0.3599446713924408,0.4262739419937134,0.5626510977745056,0.7902303338050842
23399,0.3599446713924408,0.40566930174827576,0.5626510977745056,0.48992812633514404
23400,0.967041015625,0.9676897525787354,0.8122885227203369,0.9294157028198242
23401,0.09375,0.1739749014377594,0.29608193039894104,0.4690594971179962
23402,0.951904296875,0.9565815925598145,0.8690900206565857,0.7633875608444214
23403,0.556884765625,0.5902876853942871,0.8308104276657104,0.5899555087089539
23404,0.9673665165901184,0.9677292108535767,1.0,0.9190394878387451
23405,0.197998046875,0.2528156638145447,0.42267662286758423,0.6475755572319031
23406,0.300537109375,0.3512040972709656,0.4636814594268799,0.5531516075134277
23407,0.580322265625,0.6231075525283813,0.86592036485672,0.8342514038085938
23408,0.962158203125,0.9625396132469177,0.9625431895256042,0.8655142784118652
23409,0.09375,0.09375,0.6309297680854797,0.6309297680854797
23410,0.03125,0.08343546837568283,0.11699506640434265,0.35120680928230286
23411,0.16796875,0.19435924291610718,0.3974803686141968,0.3361102342605591
23412,0.03125,0.09151389449834824,0.060708411037921906,0.26117169857025146
23413,0.606689453125,0.6378204822540283,1.0,0.7863539457321167
23414,0.518798828125,0.5996184349060059,0.4535067081451416,0.5810443758964539
23415,0.228759765625,0.2762086093425751,0.6461858153343201,0.6353542804718018
23416,0.1458333432674408,0.20029237866401672,0.3367719352245331,0.4369286000728607
23417,0.488037109375,0.5650404095649719,0.6121358871459961,0.8044167160987854
23418,0.2122395932674408,0.2963128983974457,0.36153164505958557,0.5743351578712463
23419,0.556884765625,0.6047484874725342,0.4431702494621277,0.6349356174468994
23420,0.560546875,0.560546875,1.0,1.0
23421,0.228759765625,0.2445669174194336,0.6461858153343201,0.43599778413772583
23422,0.110107421875,0.1792898178100586,0.1428571492433548,0.20798832178115845
23423,0.571533203125,0.5766151547431946,0.49935534596443176,0.4439297020435333
23424,0.518798828125,0.5776058435440063,0.4535067081451416,0.45534905791282654
23425,0.431884765625,0.46983110904693604,0.7318407297134399,0.6105335354804993
23426,0.701171875,0.7073385715484619,0.7184317708015442,0.6751216053962708
23427,0.304931640625,0.38234683871269226,0.4285714626312256,0.40862926840782166
23428,0.2774251401424408,0.3778069019317627,0.5188971757888794,0.7409153580665588
23429,0.110107421875,0.15193802118301392,0.3333333134651184,0.35322973132133484
23430,0.567138671875,0.5987749099731445,0.7988805174827576,0.5345591902732849
23431,0.0,0.06038856506347656,0.0,0.33645540475845337
23432,0.08984375,0.16137048602104187,0.3333333134651184,0.4978655278682709
23433,0.0,0.236674502491951,0.0,0.34722039103507996
23434,0.966796875,0.9674268364906311,0.7653606534004211,0.7827786803245544
23435,0.25390625,0.3212818205356598,0.39664164185523987,0.4531060457229614
23436,0.518798828125,0.5730921030044556,0.6967307925224304,0.7218847274780273
23437,0.08984375,0.14595478773117065,0.3333333134651184,0.36695167422294617
23438,0.393798828125,0.4337228238582611,0.5977610945701599,0.5140193700790405
23439,0.0,0.0,0.0,0.0
23440,0.3599446713924408,0.41286998987197876,0.36623337864875793,0.4681410491466522
23441,0.197998046875,0.2753891348838806,0.29449179768562317,0.493015855550766
23442,0.556884765625,0.5975415110588074,0.3877114951610565,0.46782171726226807
23443,0.110107421875,0.17745277285575867,0.16497723758220673,0.25358447432518005
23444,0.956298828125,0.9601814150810242,1.0,0.89207923412323
23445,0.197998046875,0.26639407873153687,0.29449179768562317,0.4003574252128601
23446,0.953369140625,0.9555748701095581,1.0,0.8544350862503052
23447,0.3599446713924408,0.45034411549568176,0.36623337864875793,0.5803658366203308
23448,0.9507649540901184,0.9562488794326782,0.7292529344558716,0.7180324792861938
23449,0.374755859375,0.4195185899734497,0.6128985285758972,0.6675240397453308
23450,0.08203125,0.1150883287191391,0.23463936150074005,0.29863667488098145
23451,0.943115234375,0.9513493776321411,0.6126077175140381,0.6674467921257019
23452,0.9507649540901184,0.9550886750221252,0.8898733854293823,0.775761067867279
23453,0.567138671875,0.5896496772766113,0.7988805174827576,0.7084463834762573
23454,0.08203125,0.1452271044254303,0.3631143569946289,0.6244461536407471
23455,0.393798828125,0.44460824131965637,0.5977610945701599,0.5517717599868774
23456,0.21875,0.28980138897895813,0.3419274091720581,0.4812934398651123
23457,0.556884765625,0.5953426361083984,0.8308104276657104,0.7108468413352966
23458,0.951904296875,0.956548810005188,0.7122209072113037,0.5779443979263306
23459,0.2774251401424408,0.3272431194782257,0.8435737490653992,0.6137436628341675
23460,0.706298828125,0.7097364664077759,0.871160089969635,0.817702054977417
23461,0.393798828125,0.45233726501464844,0.5977610945701599,0.6532264947891235
23462,0.228759765625,0.2661837041378021,0.6461858153343201,0.4536765515804291
23463,0.110107421875,0.1310286521911621,0.5158474445343018,0.5877242684364319
23464,0.166259765625,0.22221629321575165,0.5307213068008423,0.6805917024612427
23465,0.393798828125,0.4681764841079712,0.38908666372299194,0.6147879362106323
23466,0.953369140625,0.9591633081436157,0.7479812502861023,0.8281713128089905
23467,0.962158203125,0.9626930356025696,0.8420895934104919,0.789438009262085
23468,0.953369140625,0.9603316783905029,0.6543781161308289,0.7642601728439331
23469,0.95703125,0.9576834440231323,0.8046074509620667,0.8410460948944092
23470,0.08984375,0.13583391904830933,0.3333333134651184,0.4006757438182831
23471,0.146728515625,0.199615940451622,0.58057701587677,0.737902820110321
23472,0.08203125,0.19868147373199463,0.10055973380804062,0.3655738830566406
23473,0.9673665165901184,0.9678964614868164,0.8748590350151062,0.8925458788871765
23474,0.166259765625,0.20888599753379822,0.5307213068008423,0.68374103307724
23475,0.0,0.16880756616592407,0.0,0.3756263554096222
23476,0.02083333395421505,0.08247645944356918,0.04811027646064758,0.16142845153808594
23477,0.518798828125,0.572645366191864,0.6967307925224304,0.7021349668502808
23478,0.1875,0.286374568939209,0.2886616587638855,0.4747351408004761
23479,0.0,0.07552605867385864,0.0,0.34046703577041626
23480,0.580322265625,0.6367355585098267,0.5636333227157593,0.7657752633094788
23481,0.260498046875,0.3347303569316864,0.34397661685943604,0.4219290614128113
23482,0.0,0.07897552847862244,0.0,0.16982100903987885
23483,0.304931640625,0.3534148037433624,0.4285714626312256,0.4412061274051666
23484,0.606689453125,0.6421518921852112,1.0,0.9371166229248047
23485,0.197998046875,0.23117011785507202,0.6871474981307983,0.6007683277130127
23486,0.951904296875,0.9568527340888977,0.8690900206565857,0.8059923052787781
23487,0.110107421875,0.1721244752407074,0.16497723758220673,0.28030925989151
23488,0.508056640625,0.5100927948951721,0.7131452560424805,0.6810935139656067
23489,0.110107421875,0.20519320666790009,0.1428571492433548,0.3603508770465851
23490,0.304931640625,0.3753248453140259,0.4285714626312256,0.4622917175292969
23491,0.580322265625,0.6211146712303162,0.86592036485672,0.7740184664726257
23492,0.304931640625,0.3832358121871948,0.4285714626312256,0.5225462913513184
23493,0.4375,0.44921875,0.6735438704490662,0.6832725405693054
23494,0.08984375,0.12571048736572266,0.3333333134651184,0.2851974070072174
23495,0.1875,0.22027704119682312,0.7262287139892578,0.8972343802452087
23496,0.304931640625,0.37123391032218933,0.4285714626312256,0.48198202252388
23497,0.953369140625,0.9559935331344604,0.912726640701294,0.7695150375366211
23498,0.518798828125,0.544366717338562,0.6967307925224304,0.5416995882987976
23499,0.1875,0.24385841190814972,0.4692787230014801,0.44284164905548096
23500,0.499755859375,0.5484017133712769,0.629690945148468,0.685696542263031
23501,0.091796875,0.18687643110752106,0.255120187997818,0.6539236903190613
23502,0.212890625,0.23975099623203278,0.5679726600646973,0.47855934500694275
23503,0.967041015625,0.9676273465156555,0.9284793138504028,0.7990931868553162
23504,0.967041015625,0.9677090048789978,0.8122885227203369,0.8811082243919373
23505,0.499755859375,0.576242983341217,0.629690945148468,0.6173291802406311
23506,0.606689453125,0.6494601964950562,0.6509066820144653,0.7524771690368652
23507,0.110107421875,0.1780877411365509,0.3333333134651184,0.4795132577419281
23508,0.466064453125,0.5182928442955017,0.629499077796936,0.8465754389762878
23509,0.606689453125,0.6300642490386963,1.0,0.6933269500732422
23510,0.0625,0.1070733368396759,0.23463936150074005,0.45810145139694214
23511,0.488037109375,0.5190768837928772,0.8785831332206726,0.799475908279419
23512,0.490234375,0.5651834011077881,0.5961710214614868,0.6960808634757996
23513,0.393798828125,0.43232420086860657,0.690318763256073,0.7124385833740234
23514,0.968017578125,0.9680551290512085,1.0,0.8095017075538635
23515,0.951904296875,0.9562329649925232,0.8690900206565857,0.7476286292076111
23516,0.606689453125,0.6306073665618896,1.0,0.8214871883392334
23517,0.956298828125,0.9589640498161316,1.0,0.8485821485519409
23518,0.344482421875,0.38941168785095215,0.38908666372299194,0.4914955198764801
23519,0.946533203125,0.95241379737854,0.6577322483062744,0.6595621705055237
23520,0.531982421875,0.565700888633728,0.7462155222892761,0.6841254830360413
23521,0.304931640625,0.3491308391094208,1.0,0.7411010265350342
23522,0.962158203125,0.9624968767166138,0.9625431895256042,0.8299149870872498
23523,0.488037109375,0.538328230381012,0.7069194316864014,0.7535358667373657
23524,0.431884765625,0.4846024215221405,0.4763599932193756,0.6150828003883362
23525,0.25390625,0.30135825276374817,0.5692896842956543,0.6366415619850159
23526,0.659423828125,0.664231538772583,0.6764605641365051,0.7597314119338989
23527,0.146728515625,0.17190015316009521,0.48975956439971924,0.46396404504776
23528,0.9466145634651184,0.9504938125610352,0.8072783350944519,0.7294378280639648
23529,0.228759765625,0.2984471321105957,0.3198178708553314,0.510646641254425
23530,0.567138671875,0.5876725912094116,0.7988805174827576,0.5682480335235596
23531,0.946533203125,0.9547054767608643,0.8026000261306763,0.8749755024909973
23532,0.1875,0.23908887803554535,0.2886616587638855,0.42662981152534485
23533,0.0,0.033447265625,0.0,0.24618571996688843
23534,0.9507649540901184,0.9556187391281128,0.8898733854293823,0.7955721616744995
23535,0.304931640625,0.3736070990562439,0.4285714626312256,0.5686162710189819
23536,0.150390625,0.156341552734375,0.4525081515312195,0.36434999108314514
23537,0.953369140625,0.958359956741333,0.912726640701294,0.9567375183105469
23538,0.300537109375,0.3249130845069885,0.4636814594268799,0.3885539174079895
23539,0.2044270783662796,0.3003436326980591,0.3367719352245331,0.5074201226234436
23540,0.02083333395421505,0.04456838220357895,0.12103812396526337,0.22791612148284912
23541,0.2774251401424408,0.3569759428501129,0.36153164505958557,0.41393449902534485
23542,0.518798828125,0.5786911249160767,0.6967307925224304,0.7008305191993713
23543,0.166259765625,0.23200254142284393,0.2626707851886749,0.40540722012519836
23544,0.304931640625,0.39422571659088135,0.4285714626312256,0.5858712792396545
23545,0.146728515625,0.18380123376846313,0.48975956439971924,0.3986317217350006
23546,0.263671875,0.33361905813217163,0.32801172137260437,0.46041741967201233
23547,0.518798828125,0.5859240889549255,0.4535067081451416,0.5469551086425781
23548,0.606689453125,0.6381259560585022,1.0,0.887898325920105
23549,0.556884765625,0.5980160236358643,0.8308104276657104,0.6738348007202148
23550,0.9388020634651184,0.9392598271369934,0.8427215218544006,0.6830880641937256
23551,0.260498046875,0.3353702127933502,0.34397661685943604,0.3319517970085144
23552,0.499755859375,0.5602822303771973,0.629690945148468,0.7225162982940674
23553,0.967041015625,0.9676681160926819,0.8122885227203369,0.9064274430274963
23554,0.580322265625,0.5984947681427002,0.5636333227157593,0.42300134897232056
23555,0.23828125,0.2506837248802185,0.8344475626945496,0.8911429047584534
23556,0.260498046875,0.3267739415168762,0.397238165140152,0.5029109716415405
23557,0.16796875,0.21041721105575562,0.3198178708553314,0.37439677119255066
23558,0.374755859375,0.4265085458755493,0.5307213068008423,0.548464298248291
23559,0.166259765625,0.25653383135795593,0.22745199501514435,0.3327997028827667
23560,0.946533203125,0.9547070264816284,0.575423002243042,0.7790029048919678
23561,0.567138671875,0.6101836562156677,0.7988805174827576,0.6090306043624878
23562,0.44921875,0.49538275599479675,0.7216541767120361,0.7455294728279114
23563,0.5694172978401184,0.5731045603752136,0.5657033920288086,0.4604397416114807
23564,0.956298828125,0.9590160250663757,1.0,0.9567791223526001
23565,0.606689453125,0.6417991518974304,1.0,0.9188462495803833
23566,0.166259765625,0.2397422343492508,0.32645606994628906,0.4938957989215851
23567,0.47265625,0.5560295581817627,0.5698384642601013,0.6272674202919006
23568,0.03125,0.09453582763671875,0.09869397431612015,0.2974594831466675
23569,0.567138671875,0.6057783961296082,0.7988805174827576,0.8230685591697693
23570,0.110107421875,0.110107421875,0.5158474445343018,0.3579310476779938
23571,0.956298828125,0.9602754712104797,1.0,0.9682989120483398
23572,0.146728515625,0.22089950740337372,0.24239754676818848,0.4170396327972412
23573,0.150390625,0.18863773345947266,0.4525081515312195,0.42079827189445496
23574,0.556884765625,0.5871726274490356,0.8308104276657104,0.8006569743156433
23575,0.946533203125,0.9527323842048645,0.8026000261306763,0.8991506099700928
23576,0.968017578125,0.9680772423744202,1.0,0.9293714165687561
23577,0.488037109375,0.549724817276001,0.6121358871459961,0.5411900281906128
23578,0.518798828125,0.594666063785553,0.4535067081451416,0.6488472819328308
23579,0.228759765625,0.32108327746391296,0.276936799287796,0.4482181966304779
23580,0.580322265625,0.6275984048843384,0.86592036485672,0.7506739497184753
23581,0.956298828125,0.9596447348594666,1.0,0.857122540473938
23582,0.567138671875,0.6181361079216003,0.37281090021133423,0.46574273705482483
23583,0.940673828125,0.9527064561843872,0.5768473744392395,0.725022554397583
23584,0.393798828125,0.4230266809463501,0.5977610945701599,0.4018339216709137
23585,0.9673665165901184,0.9676865935325623,1.0,0.7814460396766663
23586,0.09375,0.09375,0.6309297680854797,0.6309297680854797
23587,0.584228515625,0.5846823453903198,0.6245770454406738,0.5920456051826477
23588,0.0,0.0,0.0,0.0
23589,0.951171875,0.9567147493362427,0.694340705871582,0.6704453229904175
23590,0.580322265625,0.6130536198616028,0.86592036485672,0.8142521381378174
23591,0.967041015625,0.967563807964325,0.8122885227203369,0.6830136179924011
23592,0.393798828125,0.4497505724430084,0.5977610945701599,0.5854558944702148
23593,0.44921875,0.5233158469200134,0.5027986764907837,0.6159462332725525
23594,0.374755859375,0.4472510516643524,0.5307213068008423,0.6751240491867065
23595,0.228759765625,0.25942108035087585,1.0,0.8588799238204956
23596,0.556884765625,0.5966399312019348,0.8308104276657104,0.8684243559837341
23597,0.08984375,0.17158104479312897,0.20503923296928406,0.4279950261116028
23598,0.556884765625,0.586424708366394,0.8308104276657104,0.5758665800094604
23599,0.518798828125,0.5574512481689453,1.0,0.9298112988471985
23600,0.556884765625,0.6059263348579407,0.8308104276657104,0.7732926607131958
23601,0.953369140625,0.9568915963172913,0.912726640701294,0.8103565573692322
23602,0.518798828125,0.5710797309875488,0.6967307925224304,0.6021837592124939
23603,0.150390625,0.21056127548217773,0.19393208622932434,0.24299193918704987
23605,0.962158203125,0.9626901149749756,0.8420895934104919,0.9130665063858032
23606,0.466064453125,0.5055689811706543,0.5450960993766785,0.4441690146923065
23607,0.606689453125,0.6231099963188171,1.0,0.7182387709617615
23608,0.304931640625,0.39362964034080505,0.4285714626312256,0.6460300087928772
23609,0.263671875,0.3262826204299927,0.7653606534004211,0.7662501931190491
23610,0.212890625,0.32586759328842163,0.24341687560081482,0.46335238218307495
23611,0.962158203125,0.9625556468963623,0.8420895934104919,0.7633635997772217
23612,0.197998046875,0.27273958921432495,0.34009110927581787,0.5352768898010254
23613,0.166259765625,0.2440442144870758,0.5307213068008423,0.5896649360656738
23614,0.03125,0.0574951171875,0.0488467775285244,0.11453212052583694
23615,0.466064453125,0.567089319229126,0.2907647490501404,0.6380482316017151
23616,0.344482421875,0.3846243917942047,0.5977610945701599,0.6765643954277039
23617,0.2774251401424408,0.3602452576160431,0.36153164505958557,0.4351615905761719
23618,0.9668782353401184,0.9673969745635986,0.892719030380249,0.7556819319725037
23619,0.962158203125,0.962639570236206,0.8420895934104919,0.9050342440605164
23620,0.300537109375,0.3803965747356415,0.4636814594268799,0.5478560328483582
23621,0.9673665165901184,0.9677963256835938,0.8748590350151062,0.8862432241439819
23622,0.968017578125,0.9680761694908142,1.0,0.9080878496170044
23623,0.953369140625,0.9591720700263977,0.6543781161308289,0.5828999280929565
23624,0.606689453125,0.6355566382408142,1.0,0.8380694389343262
23625,0.9673665165901184,0.9679083824157715,0.8748590350151062,0.8380008935928345
23627,0.968017578125,0.9680556058883667,1.0,0.7847563028335571
23628,0.962158203125,0.9625909924507141,0.9625431895256042,0.9308050870895386
23629,0.946533203125,0.9527781009674072,0.8793432712554932,0.8879632353782654
23630,0.110107421875,0.19497939944267273,0.3333333134651184,0.6889523267745972
23631,0.23828125,0.2981114983558655,0.30167919397354126,0.33811360597610474
23632,0.12109375,0.16975414752960205,0.19355076551437378,0.23396672308444977
23633,0.518798828125,0.5687016844749451,0.6967307925224304,0.585695207118988
23634,0.261474609375,0.3178751468658447,0.4285714626312256,0.4471500813961029
23635,0.263671875,0.3465750813484192,0.37880125641822815,0.5878954529762268
23636,0.606689453125,0.6287471055984497,1.0,0.8954474329948425
23637,0.659423828125,0.6643028855323792,0.5918076038360596,0.7007358074188232
23638,0.962158203125,0.962557852268219,0.8420895934104919,0.7920554280281067
23639,0.263671875,0.38418126106262207,0.37880125641822815,0.7287928462028503
23640,0.499755859375,0.5253316164016724,0.7271926999092102,0.5964269638061523
23641,0.619873046875,0.627936065196991,0.4733748733997345,0.6900454759597778
23642,0.455078125,0.5337863564491272,0.5115761756896973,0.6174134612083435
23643,0.0,0.02773699164390564,0.0,0.35125160217285156
23644,0.968017578125,0.9680628776550293,1.0,0.7640549540519714
23645,0.9375,0.9469927549362183,0.6545500159263611,0.7486881613731384
23646,0.1106770858168602,0.1606326699256897,0.18525049090385437,0.2607869803905487
23647,0.3599446713924408,0.41575178503990173,0.6497723460197449,0.7285110950469971
23648,0.953369140625,0.9574168920516968,0.912726640701294,0.9571032524108887
23649,0.05078125,0.1296185851097107,0.2097114622592926,0.5758728384971619
23650,0.606689453125,0.6394485235214233,1.0,0.7795519828796387
23651,0.560546875,0.6101052165031433,0.7653606534004211,0.5755336284637451
23652,0.9668782353401184,0.9673546552658081,0.892719030380249,0.901793897151947
23653,0.956298828125,0.9604508280754089,0.7169486284255981,0.7061234712600708
23654,0.304931640625,0.3676678240299225,1.0,0.8943286538124084
23655,0.23046875,0.27407389879226685,0.38063758611679077,0.43979278206825256
23656,0.23828125,0.32217973470687866,0.43299248814582825,0.5988254547119141
23657,0.09375,0.17164315283298492,0.1821252405643463,0.36058902740478516
23658,0.47265625,0.5366515517234802,0.6580725908279419,0.7190514802932739
23659,0.951904296875,0.956838071346283,0.7122209072113037,0.6648359894752502
23660,0.3599446713924408,0.4005314111709595,0.5626510977745056,0.5922480821609497
23661,0.947998046875,0.9517947435379028,0.8348100185394287,0.7579032182693481
23662,0.08984375,0.23481708765029907,0.10187789052724838,0.358048677444458
23663,0.0,0.06203896552324295,0.0,0.2147025316953659
23664,0.267578125,0.3588097095489502,0.36312174797058105,0.5550390481948853
23665,0.166259765625,0.2308385968208313,0.32645606994628906,0.3968464434146881
23666,0.968017578125,0.9680689573287964,1.0,0.955976128578186
23667,0.05078125,0.11832523345947266,0.17690707743167877,0.3208758533000946
23668,0.260498046875,0.2895088195800781,0.8026120662689209,0.9413045644760132
23669,0.2774251401424408,0.38866397738456726,0.36153164505958557,0.6850176453590393
23670,0.518798828125,0.5829483270645142,0.496870219707489,0.7260589003562927
23671,0.560546875,0.6100559234619141,0.7653606534004211,0.6851550340652466
23672,0.3599446713924408,0.42806482315063477,0.5626510977745056,0.6386088728904724
23673,0.556884765625,0.585538923740387,0.8308104276657104,0.6079949736595154
23674,0.2044270783662796,0.27373579144477844,0.5474918484687805,0.7049854397773743
23675,0.25390625,0.33674100041389465,0.39664164185523987,0.5729430317878723
23676,0.3599446713924408,0.40405330061912537,0.6497723460197449,0.6809878349304199
23677,0.499755859375,0.5471069812774658,0.629690945148468,0.6097630262374878
23679,0.956298828125,0.959924042224884,1.0,0.9352371692657471
23680,0.946533203125,0.9511581659317017,0.8793432712554932,0.857357919216156
23681,0.2774251401424408,0.35287871956825256,0.5188971757888794,0.6086072325706482
23682,0.304931640625,0.38435110449790955,0.6151177287101746,0.6789324283599854
23683,0.09375,0.14008788764476776,0.29608193039894104,0.4720359146595001
23684,0.393798828125,0.4628334641456604,0.5977610945701599,0.6641558408737183
23685,0.431884765625,0.4631790518760681,0.7318407297134399,0.5965031385421753
23686,0.212890625,0.30749577283859253,0.24341687560081482,0.420868456363678
23687,0.110107421875,0.14537939429283142,0.5158474445343018,0.5842956304550171
23688,0.51953125,0.5646770596504211,0.45818498730659485,0.6063643097877502
23689,0.374755859375,0.4220149517059326,0.5307213068008423,0.5836930871009827
23690,0.47265625,0.5415199398994446,0.5698384642601013,0.8216819763183594
23691,0.953369140625,0.9578291177749634,0.912726640701294,0.8982605934143066
23692,0.956298828125,0.9597846269607544,1.0,0.8834726810455322
23693,0.953369140625,0.958265483379364,0.912726640701294,0.8178932070732117
23694,0.110107421875,0.2092222273349762,0.1428571492433548,0.4061070680618286
23695,0.304931640625,0.4072067141532898,0.4285714626312256,0.6060754060745239
23696,0.197998046875,0.24899712204933167,0.29449179768562317,0.365693062543869
23697,0.05078125,0.13498759269714355,0.08755692839622498,0.266697496175766
23698,0.580322265625,0.6176029443740845,0.86592036485672,0.6733630895614624
23699,0.499755859375,0.5374634265899658,0.629690945148468,0.43969398736953735
23700,0.499755859375,0.5504624843597412,0.9037794470787048,0.8636106848716736
23701,0.2774251401424408,0.3222132921218872,0.5188971757888794,0.48575177788734436
23702,0.580322265625,0.6107305884361267,0.86592036485672,0.6538519859313965
23703,0.30078125,0.3269413709640503,0.5307213068008423,0.4579679071903229
23704,0.580322265625,0.6233762502670288,0.86592036485672,0.8398160338401794
23705,0.432373046875,0.4385282099246979,0.4618985950946808,0.62361079454422
23706,0.567138671875,0.611135721206665,0.7988805174827576,0.7944782972335815
23707,0.968017578125,0.9680708646774292,1.0,0.8747372627258301
23708,0.706298828125,0.7097303867340088,0.871160089969635,0.7405803799629211
23710,0.580322265625,0.6323519349098206,0.86592036485672,0.9371166229248047
23711,0.9673665165901184,0.9677452445030212,1.0,0.9395286440849304
23712,0.110107421875,0.15698428452014923,0.1428571492433548,0.20275720953941345
23714,0.0,0.0403645858168602,0.0,0.16583004593849182
23715,0.2774251401424408,0.34554994106292725,0.4175114035606384,0.5107237696647644
23716,0.110107421875,0.15698428452014923,0.3951442539691925,0.5754929780960083
23717,0.304931640625,0.3540223240852356,0.6151177287101746,0.568212628364563
23718,0.166259765625,0.23703084886074066,0.5307213068008423,0.5592725276947021
23719,0.968017578125,0.9680629968643188,1.0,0.8959136605262756
23720,0.260498046875,0.3073427975177765,0.8026120662689209,0.622760534286499
23721,0.08203125,0.14793790876865387,0.11613046377897263,0.24024342000484467
23722,0.323974609375,0.3791581988334656,0.47805625200271606,0.4805411696434021
23723,0.263671875,0.3117855191230774,0.7653606534004211,0.601144552230835
23724,0.304931640625,0.38538557291030884,0.4285714626312256,0.7244068384170532
23725,0.490234375,0.6010240316390991,0.27821314334869385,0.4635784327983856
23726,0.518798828125,0.5713983774185181,0.6967307925224304,0.7617666125297546
23727,0.508056640625,0.5149847865104675,0.46666663885116577,0.5390607118606567
23728,0.9673665165901184,0.9678482413291931,0.8748590350151062,0.8834143280982971
23729,0.146728515625,0.2223707139492035,0.3012597858905792,0.46865296363830566
23730,0.219970703125,0.2855197489261627,0.34397661685943604,0.4630548655986786
23731,0.0,0.015625,0.0,0.13032376766204834
23732,0.466064453125,0.5120222568511963,0.7823625802993774,0.7088470458984375
23733,0.228759765625,0.27706944942474365,0.3974803686141968,0.40393730998039246
23734,0.712158203125,0.7125726938247681,0.7497180104255676,0.8135585784912109
23735,0.278564453125,0.3332003355026245,0.45805788040161133,0.5499095320701599
23736,0.431884765625,0.46661996841430664,0.7318407297134399,0.7332510352134705
23737,0.499755859375,0.5655294060707092,0.629690945148468,0.7138766646385193
23738,0.1875,0.2277723252773285,0.2886616587638855,0.2850586175918579
23739,0.0,0.010416666977107525,0.0,0.3562071919441223
23740,0.16796875,0.2167598158121109,0.34665608406066895,0.5808800458908081
23741,0.706298828125,0.708850622177124,0.871160089969635,0.7712681293487549
23742,0.556884765625,0.5992770791053772,0.4431702494621277,0.4894389808177948
23743,0.091796875,0.17617470026016235,0.15692895650863647,0.44526785612106323
23744,0.228759765625,0.2944318652153015,0.6461858153343201,0.6116079092025757
23745,0.580322265625,0.6267935633659363,0.4618985950946808,0.541671097278595
23746,0.16796875,0.19991075992584229,0.3974803686141968,0.41126325726509094
23747,0.0,0.025390625,0.0,0.0705542340874672
23748,0.968017578125,0.9680770635604858,1.0,0.9121332168579102
23749,0.962158203125,0.9625312685966492,0.8420895934104919,0.8701167702674866
23750,0.9673665165901184,0.9679023027420044,0.8748590350151062,0.9310397505760193
23751,0.304931640625,0.34081801772117615,1.0,0.7727957963943481
23752,0.9466145634651184,0.955100417137146,0.6615661382675171,0.8178851008415222
23753,0.606689453125,0.6363828182220459,1.0,0.8666418790817261
23754,0.946533203125,0.9522098898887634,0.8793432712554932,0.9277509450912476
23755,0.466064453125,0.5282406210899353,0.5450960993766785,0.4612217843532562
23756,0.091796875,0.12775571644306183,0.3948093354701996,0.47112324833869934
23757,0.968017578125,0.9680567383766174,1.0,0.7610134482383728
23758,0.560546875,0.5756545662879944,0.8838695287704468,0.8145179152488708
23759,0.146728515625,0.1980275809764862,0.48975956439971924,0.4556065499782562
23760,0.393798828125,0.43669965863227844,0.5977610945701599,0.5843971371650696
23761,0.3599446713924408,0.4189070463180542,0.40125197172164917,0.661072850227356
23762,0.580322265625,0.6129942536354065,0.86592036485672,0.8564533591270447
23763,0.23828125,0.30452704429626465,0.30167919397354126,0.3528626561164856
23764,0.365234375,0.39738133549690247,0.7136205434799194,0.6225056648254395
23765,0.606689453125,0.6365571618080139,1.0,0.7952502369880676
23766,0.499755859375,0.5495624542236328,0.629690945148468,0.6358051300048828
23767,0.556884765625,0.5968701839447021,0.8308104276657104,0.8259196877479553
23768,0.9375,0.9444180727005005,0.6545500159263611,0.6585431098937988
23769,0.606689453125,0.640346884727478,1.0,0.8190716505050659
23770,0.706298828125,0.7098826169967651,0.871160089969635,0.8825454115867615
23771,0.455078125,0.5400707125663757,0.5115761756896973,0.5109724998474121
23772,0.393798828125,0.4373268783092499,0.5977610945701599,0.5715846419334412
23773,0.9466145634651184,0.949615478515625,0.8844688534736633,0.7894098162651062
23774,0.228759765625,0.28615230321884155,0.3974803686141968,0.4570605158805847
23775,0.263671875,0.35049259662628174,0.4707868993282318,0.5948509573936462
23776,0.953369140625,0.9587681293487549,0.912726640701294,0.8868706226348877
23777,0.518798828125,0.5712550282478333,0.6967307925224304,0.7178739309310913
23778,0.2044270783662796,0.25162869691848755,0.5474918484687805,0.6116237640380859
23779,0.304931640625,0.3655247092247009,0.49493172764778137,0.60370272397995
23780,0.518798828125,0.5353245735168457,0.6967307925224304,0.4513159394264221
23781,0.968017578125,0.9680672883987427,1.0,0.8271085023880005
23782,0.23828125,0.32359302043914795,0.30167919397354126,0.48319822549819946
23783,0.606689453125,0.6366113424301147,1.0,0.7601956129074097
23784,0.228759765625,0.2641657888889313,0.3974803686141968,0.37314969301223755
23785,0.488037109375,0.538151741027832,0.7069194316864014,0.7407042384147644
23786,0.962158203125,0.9625958204269409,0.8420895934104919,0.9098072052001953
23787,0.431884765625,0.468056857585907,0.4763599932193756,0.4859667122364044
23788,0.146728515625,0.146728515625,0.7579237222671509,0.7579237222671509
23789,0.962158203125,0.9624305963516235,0.9625431895256042,0.9043683409690857
23790,0.110107421875,0.163970485329628,0.5158474445343018,0.7090146541595459
23791,0.304931640625,0.36196768283843994,0.4285714626312256,0.5043110847473145
23792,0.560546875,0.6036291122436523,0.7653606534004211,0.715766966342926
23793,0.962158203125,0.9626116156578064,0.8420895934104919,0.75737464427948
23794,0.091796875,0.098663330078125,0.7653606534004211,0.45749136805534363
23795,0.953369140625,0.9588664174079895,0.912726640701294,0.8904375433921814
23796,0.197998046875,0.24649371206760406,0.42267662286758423,0.4298827648162842
23797,0.146728515625,0.25594526529312134,0.2098969668149948,0.5670720338821411
23798,0.25390625,0.3197532594203949,0.39664164185523987,0.49499598145484924
23799,0.260498046875,0.3783727288246155,0.22389668226242065,0.49101370573043823
23800,0.567138671875,0.5973502397537231,0.7988805174827576,0.8079748153686523
23801,0.0625,0.13763266801834106,0.11613046377897263,0.3428640365600586
23802,0.374755859375,0.4422091841697693,0.6128985285758972,0.7408655881881714
23803,0.4778645932674408,0.4820450246334076,0.5657033920288086,0.5313069224357605
23804,0.518798828125,0.5543000102043152,0.6967307925224304,0.6564635634422302
23805,0.278564453125,0.3302472233772278,0.39664164185523987,0.3912216126918793
23806,0.365234375,0.42535898089408875,0.3236317038536072,0.4037036597728729
23807,0.150390625,0.21317291259765625,0.22396063804626465,0.32719534635543823
23808,0.110107421875,0.17018890380859375,0.2620770037174225,0.5167794823646545
23809,0.431884765625,0.4802743196487427,0.7318407297134399,0.8228381276130676
23810,0.12109375,0.18340778350830078,0.16759954392910004,0.2799973785877228
23812,0.12109375,0.130615234375,0.46358197927474976,0.4957275986671448
23813,0.393798828125,0.46038296818733215,0.5977610945701599,0.6033037900924683
23814,0.08984375,0.1081216037273407,0.1428571492433548,0.12124333530664444
23815,0.393798828125,0.46301037073135376,0.5977610945701599,0.6596984267234802
23816,0.712158203125,0.7126419544219971,0.7497180104255676,0.869206964969635
23817,0.146728515625,0.17729754745960236,0.48975956439971924,0.43247732520103455
23818,0.946533203125,0.951642632484436,0.8026000261306763,0.7858370542526245
23819,0.0625,0.0625,0.4692787230014801,0.4692787230014801
23820,0.0625,0.18437105417251587,0.10055973380804062,0.5035572648048401
23821,0.431884765625,0.4696776270866394,0.7318407297134399,0.6266822218894958
23822,0.267578125,0.30264511704444885,0.36312174797058105,0.35993897914886475
23823,0.9668782353401184,0.9673641324043274,0.892719030380249,0.8384140133857727
23824,0.580322265625,0.6298623085021973,0.86592036485672,0.7623753547668457
23825,0.304931640625,0.3714240789413452,0.4285714626312256,0.5925728678703308
23826,0.0625,0.07421875,0.4692787230014801,0.3052348792552948
23827,0.2044270783662796,0.2103780061006546,0.8472668528556824,0.5830870866775513
23828,0.5757650136947632,0.5794579386711121,0.6966133713722229,0.7069389820098877
23829,0.48828125,0.48891857266426086,0.6066363453865051,0.6505635380744934
23830,0.393798828125,0.44130170345306396,0.5977610945701599,0.6386293172836304
23831,0.606689453125,0.6384077072143555,1.0,0.7657790184020996
23832,0.228759765625,0.2609231472015381,1.0,0.896704912185669
23833,0.469970703125,0.4764454662799835,0.5407800078392029,0.6432286500930786
23834,0.9668782353401184,0.967341423034668,0.7810032963752747,0.7458539605140686
23835,0.9444172978401184,0.9497259855270386,0.8315341472625732,0.8119819164276123
23836,0.580322265625,0.6143002510070801,0.86592036485672,0.6604542136192322
23837,0.2044270783662796,0.2855273187160492,0.3367719352245331,0.4732853174209595
23838,0.3599446713924408,0.4220167398452759,0.5626510977745056,0.639421820640564
23839,0.260498046875,0.3109437823295593,0.8026120662689209,0.6573374271392822
23840,0.1875,0.2054850310087204,0.7262287139892578,0.5702869892120361
23841,0.580322265625,0.6256120204925537,0.86592036485672,0.7261937260627747
23842,0.518798828125,0.5930467247962952,0.6967307925224304,0.7817369699478149
23843,0.304931640625,0.37708237767219543,0.6151177287101746,0.6799448132514954
23844,0.606689453125,0.6282207369804382,1.0,0.6396268606185913
23845,0.110107421875,0.1528836190700531,0.5158474445343018,0.6656897068023682
23846,0.9673665165901184,0.9675162434577942,1.0,0.7511817216873169
23847,0.304931640625,0.39755478501319885,0.4285714626312256,0.5352507829666138
23848,0.304931640625,0.3465486764907837,0.49493172764778137,0.486129492521286
23849,0.304931640625,0.4018977880477905,0.2789600193500519,0.4600297510623932
23850,0.940673828125,0.9480350613594055,0.7038999795913696,0.7726076245307922
23851,0.3599446713924408,0.3888967037200928,0.36623337864875793,0.363269180059433
23852,0.110107421875,0.13411152362823486,1.0,0.7019727230072021
23853,0.03125,0.09398327767848969,0.15273310244083405,0.5175453424453735
23854,0.228759765625,0.3051925003528595,0.276936799287796,0.44814741611480713
23855,0.967041015625,0.9676989912986755,0.8122885227203369,0.8373543620109558
23856,0.9673665165901184,0.96772301197052,1.0,0.8975820541381836
23857,0.499755859375,0.5530759692192078,0.629690945148468,0.6756492257118225
23858,0.304931640625,0.4014650583267212,0.4285714626312256,0.5093578696250916
23859,0.518798828125,0.5599291324615479,0.8046129941940308,0.7495706081390381
23860,0.03125,0.15802764892578125,0.0488467775285244,0.29204869270324707
23861,0.2774251401424408,0.3755123019218445,0.36153164505958557,0.46410006284713745
23862,0.03125,0.0458984375,0.38685283064842224,0.6509209871292114
23863,0.212890625,0.27609291672706604,0.5679726600646973,0.5643102526664734
23864,0.518798828125,0.5549231767654419,0.6967307925224304,0.6013280153274536
23865,0.2774251401424408,0.3354334533214569,0.5188971757888794,0.5129345059394836
23866,0.499755859375,0.5746504664421082,0.629690945148468,0.6544605493545532
23867,0.606689453125,0.6406512260437012,1.0,0.9741686582565308
23868,0.490234375,0.5048736333847046,0.8556691408157349,0.7450722455978394
23869,0.488037109375,0.5449497103691101,0.6121358871459961,0.5502855181694031
23870,0.304931640625,0.3593347668647766,0.49493172764778137,0.5791282653808594
23871,0.02083333395421505,0.0360703244805336,0.12103812396526337,0.1836756467819214
23872,0.556884765625,0.5839476585388184,0.8308104276657104,0.7329447865486145
23873,0.606689453125,0.6271146535873413,1.0,0.6551946401596069
23874,0.267578125,0.3080235421657562,0.36312174797058105,0.3639560043811798
23875,0.393798828125,0.42794832587242126,0.8579513430595398,0.8071413636207581
23876,0.261474609375,0.31918153166770935,0.4285714626312256,0.5474452376365662
23877,0.2122395932674408,0.2870475649833679,0.36153164505958557,0.4939584732055664
23878,0.466064453125,0.5010657906532288,0.629499077796936,0.5651578307151794
23879,0.304931640625,0.3813754916191101,0.4285714626312256,0.6674492955207825
23880,0.44921875,0.5238307118415833,0.5027986764907837,0.679991602897644
23881,0.4375,0.5382500886917114,0.4692787528038025,0.6152191758155823
23882,0.499755859375,0.5444290637969971,0.629690945148468,0.6532214879989624
23883,0.580322265625,0.6077525019645691,0.86592036485672,0.5833941698074341
23884,0.499755859375,0.5343383550643921,0.9037794470787048,0.8106370568275452
23885,0.701904296875,0.7061659097671509,0.7402501106262207,0.7788078784942627
23886,0.9444172978401184,0.9499201774597168,0.8315341472625732,0.8325161933898926
23887,0.606689453125,0.632914125919342,1.0,0.8139846920967102
23888,0.304931640625,0.3846895694732666,0.49493172764778137,0.6864379644393921
23889,0.499755859375,0.5364296436309814,0.7271926999092102,0.7313855886459351
23890,0.228759765625,0.3556919991970062,0.276936799287796,0.4967035949230194
23891,0.261474609375,0.33716511726379395,0.4285714626312256,0.5048209428787231
23892,0.518798828125,0.564731240272522,1.0,0.9264011383056641
23893,0.968017578125,0.9680768251419067,1.0,0.7922726273536682
23894,0.2774251401424408,0.3140411376953125,0.5188971757888794,0.4934030771255493
23895,0.1875,0.2490088790655136,0.4692787230014801,0.5188946723937988
23896,0.9444172978401184,0.9469690918922424,0.8315341472625732,0.7794725298881531
23897,0.567138671875,0.5947635769844055,0.7988805174827576,0.6146050691604614
23898,0.323974609375,0.3819575011730194,0.5520787835121155,0.7129371166229248
23899,0.228759765625,0.2808057963848114,0.3974803686141968,0.4215463697910309
23900,0.953369140625,0.9566121697425842,0.912726640701294,0.7383343577384949
23901,0.08984375,0.20325003564357758,0.16497723758220673,0.40618035197257996
23902,0.304931640625,0.3516938090324402,1.0,0.784828782081604
23903,0.606689453125,0.6308267116546631,1.0,0.888836681842804
23904,0.228759765625,0.288064181804657,0.3198178708553314,0.36693310737609863
23905,0.956298828125,0.9598381519317627,0.8195018768310547,0.7600321769714355
23906,0.03125,0.08655411005020142,0.0488467775285244,0.18921515345573425
23907,0.304931640625,0.374919056892395,0.49493172764778137,0.6450080275535583
23908,0.344482421875,0.4017103314399719,0.5977610945701599,0.6421188116073608
23909,0.9673665165901184,0.9678028225898743,1.0,0.9316039681434631
23910,0.701171875,0.7098320722579956,0.5150786638259888,0.718130886554718
23911,0.499755859375,0.5292861461639404,0.9037794470787048,0.7517671585083008
23912,0.146728515625,0.1556549072265625,0.7579237222671509,0.5624407529830933
23913,0.968017578125,0.9680771827697754,1.0,0.7984534502029419
23914,0.261474609375,0.31509077548980713,0.4285714626312256,0.5590710639953613
23915,0.9673665165901184,0.9678471088409424,0.8748590350151062,0.7563705444335938
23916,0.21875,0.2401132583618164,0.29608193039894104,0.28608402609825134
23917,0.968017578125,0.9680666923522949,1.0,0.9644973874092102
23919,0.499755859375,0.5695734620094299,0.629690945148468,0.6133440136909485
23920,0.267578125,0.3143497109413147,0.36312174797058105,0.4768407642841339
23921,0.567138671875,0.625288724899292,0.7988805174827576,0.762272298336029
23922,0.556884765625,0.5814364552497864,0.9594535827636719,0.7980526089668274
23923,0.304931640625,0.37751758098602295,1.0,1.0
23924,0.03125,0.07509619742631912,0.0488467775285244,0.14635691046714783
23925,0.05078125,0.11150646209716797,0.10881868004798889,0.23019063472747803
23926,0.951904296875,0.9570914506912231,0.8690900206565857,0.809272050857544
23927,0.531982421875,0.573890745639801,0.7462155222892761,0.6372484564781189
23928,0.606689453125,0.6386754512786865,1.0,0.8249505758285522
23929,0.0,0.0162760429084301,0.0,0.21885058283805847
23930,0.3599446713924408,0.3998178541660309,0.5626510977745056,0.5463749766349792
23931,0.091796875,0.2517925798892975,0.1093372330069542,0.5028908252716064
23932,0.556884765625,0.605501115322113,0.8308104276657104,0.7397217154502869
23933,0.703369140625,0.7101520299911499,0.6423966884613037,0.7833496928215027
23934,0.956298828125,0.9584078788757324,1.0,0.8784238696098328
23935,0.962158203125,0.9624213576316833,0.8420895934104919,0.6714633107185364
23936,0.0,0.0,0.0,0.0
23937,0.946533203125,0.9565057158470154,0.6577322483062744,0.8615500330924988
23938,0.580322265625,0.604574978351593,0.4618985950946808,0.4280526340007782
23939,0.0625,0.07421875,0.1854327917098999,0.1776781976222992
23940,0.344482421875,0.3565003275871277,0.690318763256073,0.6658435463905334
23941,0.323974609375,0.3649323582649231,0.47805625200271606,0.49974632263183594
23942,0.968017578125,0.9680597186088562,1.0,0.8454959988594055
23943,0.967041015625,0.9678146243095398,0.8122885227203369,0.872019350528717
23944,0.943359375,0.9468235373497009,0.9184463024139404,0.7752573490142822
23945,0.344482421875,0.4004647731781006,0.5977610945701599,0.7376598119735718
23946,0.110107421875,0.16438718140125275,0.5158474445343018,0.7072182297706604
23947,0.51953125,0.5416787266731262,0.7039180994033813,0.7141646146774292
23948,0.263671875,0.33938902616500854,0.4707868993282318,0.6037520170211792
23949,0.110107421875,0.16840076446533203,0.1428571492433548,0.2395353615283966
23950,0.365234375,0.39892637729644775,0.7136205434799194,0.6087587475776672
23951,0.3059895932674408,0.38118645548820496,0.4357588291168213,0.46231698989868164
23952,0.25390625,0.3399321436882019,0.39664164185523987,0.5719172954559326
23953,0.518798828125,0.5753886699676514,0.6967307925224304,0.7317774295806885
23954,0.091796875,0.12003076076507568,0.3948093354701996,0.4494818150997162
23955,0.146728515625,0.2007768750190735,0.48975956439971924,0.6441231966018677
23956,0.556884765625,0.59749436378479,0.8308104276657104,0.6707877516746521
23957,0.260498046875,0.3202038109302521,0.34397661685943604,0.43269023299217224
23958,0.08203125,0.12295103073120117,0.3631143569946289,0.49583709239959717
23959,0.567138671875,0.6208963394165039,0.7988805174827576,0.6651735305786133
23960,0.9673665165901184,0.9676405191421509,1.0,0.7570214867591858
23961,0.304931640625,0.32673758268356323,1.0,0.6636375784873962
23962,0.556884765625,0.6059943437576294,0.8308104276657104,0.9503684043884277
23963,0.556884765625,0.5977847576141357,0.8308104276657104,0.7010163068771362
23964,0.110107421875,0.15094850957393646,0.3333333134651184,0.35168030858039856
23966,0.150390625,0.21352322399616241,0.2783457934856415,0.42082536220550537
23967,0.166259765625,0.1712188720703125,0.6291344165802002,0.535347044467926
23968,0.2774251401424408,0.38808438181877136,0.4175114035606384,0.7497890591621399
23969,0.146728515625,0.23116379976272583,0.48975956439971924,0.675554096698761
23970,0.499755859375,0.5475505590438843,0.629690945148468,0.6467820405960083
23972,0.0,0.0718296617269516,0.0,0.2506377398967743
23973,0.323974609375,0.35827288031578064,0.6861420273780823,0.6535364985466003
23974,0.2774251401424408,0.3933728337287903,0.36153164505958557,0.4750996232032776
23975,0.304931640625,0.3701346218585968,0.6151177287101746,0.7212221026420593
23976,0.956298828125,0.9606233239173889,0.7169486284255981,0.7484914064407349
23977,0.9673665165901184,0.9677101969718933,0.8748590350151062,0.762114942073822
23978,0.606689453125,0.6422219276428223,1.0,0.9068558812141418
23979,0.0,0.0,0.0,0.0
23980,0.967041015625,0.9676504731178284,0.8122885227203369,0.6657698154449463
23981,0.9388020634651184,0.9459006786346436,0.48492133617401123,0.4297615885734558
23982,0.968017578125,0.9680670499801636,1.0,0.8126680254936218
23983,0.3599446713924408,0.40011653304100037,0.5626510977745056,0.5239043235778809
23984,0.23046875,0.33609291911125183,0.32960182428359985,0.6113688945770264
23985,0.110107421875,0.19924449920654297,0.1428571492433548,0.33073684573173523
23986,0.953369140625,0.9561895728111267,0.912726640701294,0.7293485403060913
23987,0.946533203125,0.9516811370849609,0.8026000261306763,0.6929674744606018
23988,0.110107421875,0.16667814552783966,0.16497723758220673,0.30332231521606445
23989,0.09375,0.1069742813706398,0.35098522901535034,0.3678424656391144
23990,0.374755859375,0.44466376304626465,0.3454500138759613,0.48801717162132263
23991,0.703369140625,0.710346519947052,0.6423966884613037,0.8220959901809692
23992,0.091796875,0.15175344049930573,0.15692895650863647,0.2613915801048279
23993,0.567138671875,0.5937857627868652,0.5199966430664062,0.5544933080673218
23994,0.197998046875,0.26043936610221863,0.34009110927581787,0.44000619649887085
23995,0.560546875,0.6146821975708008,0.7653606534004211,0.7398270964622498
23996,0.946533203125,0.9522138237953186,0.8793432712554932,0.8576992154121399
23997,0.701904296875,0.7045166492462158,0.8110315203666687,0.7240006327629089
23998,0.110107421875,0.2268224060535431,0.1428571492433548,0.30567070841789246
23999,0.946533203125,0.9504477977752686,0.8026000261306763,0.7565103769302368
24000,0.703369140625,0.706078290939331,0.7838867902755737,0.7342145442962646
24001,0.946533203125,0.9549704790115356,0.575423002243042,0.6034595370292664
24002,0.606689453125,0.6420941352844238,1.0,0.9202181696891785
24003,0.706298828125,0.7101923227310181,0.6245770454406738,0.7006233334541321
24004,0.304931640625,0.3916187882423401,0.4285714626312256,0.5844196677207947
24005,0.946533203125,0.9547201991081238,0.8026000261306763,0.8211549520492554
24006,0.228759765625,0.26714080572128296,0.3974803686141968,0.43129420280456543
24007,0.967041015625,0.9675134420394897,0.9284793138504028,0.8534155488014221
24008,0.959228515625,0.9597640633583069,0.8722942471504211,0.8388423323631287
24009,0.4375,0.516855001449585,0.4692787528038025,0.5682618021965027
24010,0.9673665165901184,0.9678167104721069,0.8748590350151062,0.8374013304710388
24011,0.2774251401424408,0.36059653759002686,0.36153164505958557,0.4835590422153473
24012,0.499755859375,0.5675009489059448,0.629690945148468,0.6770403981208801
24013,0.393798828125,0.444050669670105,0.5977610945701599,0.6765643954277039
24014,0.606689453125,0.6493434906005859,0.5334192514419556,0.635773241519928
24015,0.968017578125,0.9680668711662292,1.0,0.8048833012580872
24016,0.968017578125,0.9680609107017517,1.0,0.8940243721008301
24017,0.606689453125,0.6400583386421204,1.0,0.9450935125350952
24018,0.12109375,0.14355584979057312,0.3910655975341797,0.3403172492980957
24019,0.0,0.010416666977107525,0.0,0.0719834566116333
24020,0.580322265625,0.628140926361084,0.86592036485672,0.8058048486709595
24021,0.953369140625,0.9589698314666748,0.7479812502861023,0.7700132131576538
24022,0.12109375,0.24773536622524261,0.16759954392910004,0.4643958508968353
24023,0.260498046875,0.3226363956928253,0.8026120662689209,0.7430579662322998
24024,0.14453125,0.2194819301366806,0.5307213068008423,0.6743021607398987
24025,0.091796875,0.22384163737297058,0.07116833329200745,0.33385512232780457
24026,0.110107421875,0.18043145537376404,0.3333333134651184,0.5169438719749451
24027,0.943115234375,0.9499841928482056,0.7475366592407227,0.6556057333946228
24028,0.518798828125,0.5622383952140808,0.6967307925224304,0.63480544090271
24029,0.9444172978401184,0.9498783946037292,0.7589633464813232,0.8196330666542053
24030,0.606689453125,0.6424567699432373,1.0,0.9432106614112854
24031,0.957763671875,0.9585047960281372,0.7236568927764893,0.7652207612991333
24032,0.08984375,0.14625699818134308,0.3333333134651184,0.4267629086971283
24033,0.706298828125,0.7072283029556274,0.871160089969635,0.7349212169647217
24034,0.9444172978401184,0.9535568356513977,0.6219719052314758,0.6621749997138977
24035,0.212890625,0.212890625,0.5679726600646973,0.3756093382835388
24036,0.304931640625,0.37764614820480347,0.49493172764778137,0.6610358953475952
24038,0.0625,0.068359375,0.4692787230014801,0.28371259570121765
24039,0.0,0.012500000186264515,0.0,0.049562081694602966
24040,0.606689453125,0.6416525840759277,1.0,0.8805432319641113
24041,0.431884765625,0.4758773148059845,0.7318407297134399,0.7333472371101379
24042,0.959228515625,0.959648072719574,0.8722942471504211,0.7150704264640808
24043,0.05078125,0.0784616470336914,0.10881868004798889,0.1464303582906723
24044,0.304931640625,0.37377840280532837,0.6151177287101746,0.7178558707237244
24045,0.466064453125,0.5611622333526611,0.5450960993766785,0.7001372575759888
24046,0.606689453125,0.6386998891830444,1.0,0.9079756736755371
24047,0.03125,0.04296875,0.38685283064842224,0.6240505576133728
24048,0.47265625,0.4966583251953125,0.8178747296333313,0.6660813689231873
24049,0.23828125,0.3165671229362488,0.30167919397354126,0.44037899374961853
24050,0.1106770858168602,0.16937470436096191,0.37429505586624146,0.4464198648929596
24051,0.706298828125,0.7094294428825378,0.871160089969635,0.7736340165138245
24052,0.606689453125,0.645341694355011,0.6509066820144653,0.8059871792793274
24053,0.0,0.0585123710334301,0.0,0.14621853828430176
24054,0.606689453125,0.628610372543335,1.0,0.7127810120582581
24055,0.556884765625,0.6034864187240601,0.8308104276657104,0.7390425801277161
24056,0.606689453125,0.6269517540931702,1.0,0.8621236681938171
24057,0.488037109375,0.5710487961769104,0.6121358871459961,0.6950156688690186
24058,0.701904296875,0.7073397636413574,0.7402501106262207,0.70737624168396
24059,0.518798828125,0.5522993206977844,0.6967307925224304,0.6647390127182007
24060,0.560546875,0.6042919754981995,0.7653606534004211,0.6493443846702576
24061,0.701904296875,0.707219660282135,0.7402501106262207,0.611643373966217
24062,0.943115234375,0.9474860429763794,0.9313938021659851,0.8388685584068298
24063,0.518798828125,0.5668070316314697,1.0,0.9621871709823608
24064,0.278564453125,0.35614269971847534,0.39664164185523987,0.49003076553344727
24065,0.47265625,0.5562186241149902,0.5698384642601013,0.6623240113258362
24066,0.967041015625,0.9677990674972534,0.8122885227203369,0.8728386163711548
24067,0.432373046875,0.43903928995132446,0.4040961265563965,0.4725303053855896
24068,0.03125,0.037109375,0.04229741916060448,0.05308946222066879
24069,0.3599446713924408,0.4096597135066986,0.5626510977745056,0.7016329169273376
24070,0.228759765625,0.3252463936805725,0.276936799287796,0.4207184910774231
24071,0.197998046875,0.2714897394180298,0.29449179768562317,0.4840652346611023
24072,0.946533203125,0.95343416929245,0.8026000261306763,0.8861876130104065
24073,0.2122395932674408,0.23939451575279236,0.5188971757888794,0.4532831907272339
24074,0.556884765625,0.6054866909980774,0.8308104276657104,0.7937198877334595
24075,0.08203125,0.1408436894416809,0.23463936150074005,0.48329997062683105
24076,0.951904296875,0.9585238695144653,0.6230928897857666,0.7224101424217224
24077,0.953369140625,0.9566128253936768,1.0,0.9295752048492432
24078,0.606689453125,0.6393782496452332,0.5334192514419556,0.6148418188095093
24079,0.518798828125,0.5687100887298584,0.6967307925224304,0.7245827317237854
24080,0.703369140625,0.7102952599525452,0.5620065331459045,0.6961005330085754
24081,0.2044270783662796,0.32183030247688293,0.3367719352245331,0.5909110903739929
24082,0.3059895932674408,0.3677457571029663,0.5032320022583008,0.6659399271011353
24083,0.0,0.0,0.0,0.0
24084,0.9444172978401184,0.9542476534843445,0.544137716293335,0.6571163535118103
24085,0.606689453125,0.6304280757904053,1.0,0.8767088055610657
24086,0.197998046875,0.2750803232192993,0.34009110927581787,0.459500253200531
24087,0.959228515625,0.9597610831260681,0.7631344795227051,0.6161516904830933
24088,0.0625,0.12113258242607117,0.15642623603343964,0.3336789608001709
24089,0.580322265625,0.6161208748817444,0.5636333227157593,0.6021327972412109
24090,0.606689453125,0.6212886571884155,1.0,0.8798757195472717
24091,0.0,0.0234375,0.0,0.31546488404273987
24092,0.197998046875,0.26274383068084717,0.6871474981307983,0.6424323320388794
24093,0.228759765625,0.2948615252971649,0.6461858153343201,0.653106153011322
24094,0.197998046875,0.28614288568496704,0.29449179768562317,0.5509095788002014
24095,0.488037109375,0.5545679330825806,0.6121358871459961,0.7714352607727051
24096,0.951171875,0.9517432451248169,0.8472716808319092,0.7921827435493469
24097,0.939453125,0.940673828125,0.6820816993713379,0.5386215448379517
24098,0.518798828125,0.5710797309875488,0.6967307925224304,0.8003386855125427
24099,0.261474609375,0.29913967847824097,0.6151177287101746,0.5800400376319885
24100,0.1875,0.24202005565166473,0.4692787230014801,0.43878689408302307
24101,0.393798828125,0.4440506398677826,0.5977610945701599,0.6353867053985596
24102,0.344482421875,0.39622247219085693,0.5977610945701599,0.5872936844825745
24103,0.0,0.0,0.0,0.0
24104,0.1106770858168602,0.2103835940361023,0.18525049090385437,0.46887075901031494
24105,0.12109375,0.20861949026584625,0.3910655975341797,0.5690654516220093
24106,0.580322265625,0.6185494661331177,0.86592036485672,0.852635383605957
24107,0.304931640625,0.3667822778224945,0.4285714626312256,0.4966855049133301
24108,0.091796875,0.091796875,1.0,1.0
24109,0.956298828125,0.9592915773391724,0.7169486284255981,0.6464218497276306
24110,0.2774251401424408,0.29924920201301575,0.8435737490653992,0.6473121047019958
24111,0.9507649540901184,0.9576827883720398,0.7292529344558716,0.7963641285896301
24112,0.393798828125,0.46054691076278687,0.5977610945701599,0.7802590131759644
24113,0.567138671875,0.6063803434371948,0.7988805174827576,0.8615419268608093
24114,0.499755859375,0.5424960851669312,0.9037794470787048,0.817750096321106
24115,0.323974609375,0.32732200622558594,0.6861420273780823,0.4526549279689789
24116,0.968017578125,0.9680594801902771,1.0,0.9408605098724365
24117,0.967041015625,0.9678068161010742,0.8122885227203369,0.8358789086341858
24118,0.962158203125,0.9625229835510254,0.9625431895256042,0.8245393633842468
24119,0.2774251401424408,0.3442661166191101,0.8435737490653992,0.7202927470207214
24120,0.9388020634651184,0.9388020634651184,0.9916236400604248,0.9916236400604248
24121,0.02083333395421505,0.10588537901639938,0.07821311801671982,0.41237330436706543
24122,0.956298828125,0.9595990180969238,0.8195018768310547,0.7053483724594116
24123,0.166259765625,0.2472950518131256,0.22745199501514435,0.31427010893821716
24124,0.953369140625,0.9587393403053284,0.912726640701294,0.9659382104873657
24125,0.0,0.0062500000931322575,0.0,0.06362079083919525
24126,0.260498046875,0.28627437353134155,0.8026120662689209,0.7488265633583069
24127,0.091796875,0.16668415069580078,0.15692895650863647,0.3836725056171417
24128,0.261474609375,0.30979230999946594,0.4285714626312256,0.420510858297348
24129,0.374755859375,0.4212213158607483,0.7617307901382446,0.7702839970588684
24130,0.606689453125,0.6377551555633545,1.0,0.869438111782074
24131,0.08203125,0.20702117681503296,0.14433082938194275,0.5238572359085083
24132,0.260498046875,0.3246515393257141,0.49370092153549194,0.5794968008995056
24133,0.490234375,0.5418639779090881,0.5961710214614868,0.6620475649833679
24134,0.956298828125,0.958503007888794,1.0,0.8971232175827026
24135,0.365234375,0.4437792897224426,0.4972013831138611,0.7041926383972168
24136,0.701904296875,0.7052402496337891,0.6066363453865051,0.6301457285881042
24137,0.951171875,0.954735279083252,0.694340705871582,0.6540310382843018
24138,0.488037109375,0.5539900064468384,0.6121358871459961,0.5858324766159058
24139,0.431884765625,0.47266829013824463,0.7318407297134399,0.7381392121315002
24140,0.9673665165901184,0.9677760004997253,0.8748590350151062,0.7346267104148865
24141,0.14453125,0.2003859281539917,0.22745199501514435,0.26221826672554016
24142,0.146728515625,0.2579697370529175,0.24239754676818848,0.5002140998840332
24143,0.166259765625,0.2257009744644165,0.22745199501514435,0.27889320254325867
24144,0.304931640625,0.3720039129257202,0.6151177287101746,0.7329536080360413
24145,0.701904296875,0.7062147855758667,0.7402501106262207,0.7195033431053162
24146,0.260498046875,0.35143518447875977,0.397238165140152,0.5636789202690125
24147,0.323974609375,0.397357314825058,0.3111700117588043,0.5847664475440979
24148,0.110107421875,0.17164243757724762,0.3333333134651184,0.5201529860496521
24149,0.393798828125,0.4418070614337921,0.5977610945701599,0.6486436128616333
24150,0.606689453125,0.6306600570678711,1.0,0.7662553787231445
24151,0.706298828125,0.7110831141471863,0.6245770454406738,0.742326021194458
24152,0.2774251401424408,0.3506680130958557,0.4175114035606384,0.557002067565918
24153,0.110107421875,0.18868540227413177,0.16497723758220673,0.36843040585517883
24154,0.197998046875,0.24965843558311462,0.6871474981307983,0.6494561433792114
24155,0.3599446713924408,0.42668086290359497,0.5626510977745056,0.6994993686676025
24156,0.580322265625,0.6184693574905396,0.86592036485672,0.9075652360916138
24157,0.967041015625,0.9675009250640869,0.9284793138504028,0.88264399766922
24158,0.3059895932674408,0.34925729036331177,0.5032320022583008,0.5059606432914734
24159,0.2774251401424408,0.32358551025390625,0.8435737490653992,0.8871799111366272
24160,0.518798828125,0.5832355618476868,0.6967307925224304,0.7414551973342896
24161,0.166259765625,0.20880790054798126,0.5307213068008423,0.4579577147960663
24162,0.110107421875,0.1724747121334076,0.3333333134651184,0.6233261823654175
24163,0.9444172978401184,0.9481472969055176,0.9456308484077454,0.8208658695220947
24164,0.951904296875,0.9550490975379944,0.8690900206565857,0.9275649785995483
24165,0.374755859375,0.4334545135498047,0.5307213068008423,0.6817200183868408
24166,0.0,0.0,0.0,0.0
24167,0.197998046875,0.2577188313007355,0.6871474981307983,0.6844085454940796
24168,0.2774251401424408,0.34217095375061035,0.2932012677192688,0.38906487822532654
24169,0.166259765625,0.21927885711193085,0.5307213068008423,0.4605856239795685
24170,0.951904296875,0.9548393487930298,0.9521908760070801,0.8783546686172485
24171,0.951904296875,0.956049382686615,0.9521908760070801,0.9206876754760742
24172,0.393798828125,0.4524678587913513,0.38908666372299194,0.4934330880641937
24173,0.9466145634651184,0.955168604850769,0.6615661382675171,0.7909653782844543
24174,0.267578125,0.33029478788375854,0.36312174797058105,0.5724374651908875
24175,0.956298828125,0.9590657353401184,1.0,0.9639391303062439
24176,0.951904296875,0.9550381898880005,0.8690900206565857,0.812299907207489
24177,0.606689453125,0.6381582021713257,1.0,0.7563967704772949
24178,0.228759765625,0.36861273646354675,0.15910254418849945,0.43483391404151917
24179,0.531982421875,0.5598649382591248,0.8617600202560425,0.8196921348571777
24180,0.518798828125,0.5775113105773926,0.6967307925224304,0.680492103099823
24181,0.05078125,0.11690650135278702,0.17690707743167877,0.4375591576099396
24182,0.228759765625,0.2742307484149933,0.3974803686141968,0.3618353009223938
24183,0.606689453125,0.6373687982559204,1.0,0.9101426601409912
24184,0.263671875,0.32572484016418457,0.7653606534004211,0.7066150307655334
24185,0.712158203125,0.7123987078666687,0.8569586873054504,0.765187680721283
24186,0.110107421875,0.2417006939649582,0.07620275020599365,0.30395886301994324
24187,0.110107421875,0.18346963822841644,0.16497723758220673,0.3839956820011139
24188,0.393798828125,0.4436113238334656,0.5977610945701599,0.6718541383743286
24189,0.560546875,0.6175258159637451,0.7653606534004211,0.7994345426559448
24190,0.091796875,0.12119388580322266,0.15692895650863647,0.2147129476070404
24191,0.08984375,0.12026089429855347,0.20503923296928406,0.2352655827999115
24192,0.606689453125,0.6417106986045837,1.0,0.8820480108261108
24193,0.1875,0.21252784132957458,0.7262287139892578,0.8677590489387512
24194,0.9668782353401184,0.9671264886856079,0.892719030380249,0.8417550921440125
24195,0.23828125,0.2715147137641907,0.7039180994033813,0.4942041337490082
24196,0.16796875,0.2249666154384613,0.276936799287796,0.3034784197807312
24197,0.0625,0.0777369886636734,0.4692787230014801,0.3875426650047302
24198,0.304931640625,0.3633233904838562,1.0,0.9052115678787231
24199,0.580322265625,0.6325886249542236,0.5636333227157593,0.7165560126304626
24200,0.946533203125,0.9527707099914551,0.8026000261306763,0.7490630745887756
24201,0.580322265625,0.6129942536354065,0.86592036485672,0.7066917419433594
24202,0.212890625,0.2840142846107483,0.5679726600646973,0.5181050300598145
24203,0.703369140625,0.7084013223648071,0.7838867902755737,0.7282004356384277
24204,0.580322265625,0.6275069117546082,0.5636333227157593,0.7313777804374695
24205,0.9375,0.9406917095184326,0.8155369758605957,0.705413281917572
24206,0.606689453125,0.636550784111023,1.0,0.8668757677078247
24207,0.110107421875,0.14183412492275238,0.5158474445343018,0.7139362692832947
24208,0.0,0.012500000186264515,0.0,0.38685280084609985
24209,0.431884765625,0.4701511263847351,0.7318407297134399,0.857667088508606
24210,0.267578125,0.30435559153556824,0.5766665935516357,0.7337997555732727
24211,0.304931640625,0.3417477011680603,1.0,0.9108436107635498
24212,0.946533203125,0.9513888359069824,0.8793432712554932,0.8797675371170044
24213,0.580322265625,0.6291242241859436,0.86592036485672,0.9155074954032898
24214,0.518798828125,0.5644957423210144,1.0,0.9130004644393921
24215,0.304931640625,0.3769473135471344,0.49493172764778137,0.646320104598999
24216,0.110107421875,0.15742024779319763,0.3333333134651184,0.509609580039978
24217,0.580322265625,0.6252647638320923,0.86592036485672,0.9000595211982727
24218,0.304931640625,0.3419204354286194,0.6151177287101746,0.6061218976974487
24219,0.197998046875,0.2976706326007843,0.1916866898536682,0.44805824756622314
24221,0.110107421875,0.1990969181060791,0.3333333134651184,0.5878493189811707
24222,0.263671875,0.3468937277793884,0.21350501477718353,0.34732091426849365
24223,0.951904296875,0.957809567451477,0.8690900206565857,0.8609880208969116
24224,0.2774251401424408,0.33601680397987366,0.8435737490653992,0.8706614375114441
24225,0.03125,0.13998663425445557,0.060708411037921906,0.348310649394989
24226,0.946533203125,0.9489784240722656,1.0,0.9109396934509277
24227,0.2774251401424408,0.3199160397052765,0.5188971757888794,0.5314610600471497
24228,0.03125,0.0550537109375,0.0775962620973587,0.1471066176891327
24229,0.466064453125,0.5015791654586792,0.7823625802993774,0.7763057947158813
24230,0.2044270783662796,0.27359890937805176,0.5474918484687805,0.6815634369850159
24231,0.16796875,0.22022688388824463,0.3974803686141968,0.5179437398910522
24232,0.9444172978401184,0.9496830105781555,0.8315341472625732,0.8178343176841736
24233,0.9673665165901184,0.9677296280860901,1.0,0.9273602962493896
24234,0.2044270783662796,0.24675655364990234,0.6490147709846497,0.777982234954834
24236,0.261474609375,0.3634496331214905,0.2789600193500519,0.4851702153682709
24237,0.956298828125,0.9588791728019714,1.0,0.9790766835212708
24238,0.946533203125,0.9499772191047668,0.8793432712554932,0.8471992015838623
24239,0.212890625,0.212890625,1.0,1.0
24240,0.393798828125,0.43463951349258423,0.5977610945701599,0.623400092124939
24241,0.2774251401424408,0.3890034556388855,0.36153164505958557,0.6583939790725708
24242,0.393798828125,0.44853782653808594,0.5977610945701599,0.7893571257591248
24243,0.0625,0.0708705335855484,0.24207624793052673,0.2513510286808014
24244,0.23046875,0.2573030889034271,0.5234342813491821,0.6595324873924255
24245,0.323974609375,0.374398410320282,0.47805625200271606,0.47928255796432495
24246,0.091796875,0.1761508584022522,0.15692895650863647,0.3551672399044037
24247,0.466064453125,0.4917301833629608,0.8656565546989441,0.8651314973831177
24248,0.518798828125,0.5528165102005005,1.0,0.8687607645988464
24249,0.197998046875,0.2057342529296875,0.8145672082901001,0.8207556009292603
24250,0.4375,0.4621643126010895,0.7452524900436401,0.8301428556442261
24251,0.374755859375,0.4255337715148926,0.5307213068008423,0.5621586441993713
24252,0.228759765625,0.2738085091114044,0.6461858153343201,0.7058584690093994
24253,0.518798828125,0.5246009826660156,1.0,1.0
24254,0.1875,0.1931423544883728,0.8262346386909485,0.9091417789459229
24255,0.228759765625,0.2708139419555664,0.6461858153343201,0.7358635663986206
24256,0.263671875,0.2896556556224823,0.90728360414505,0.875199556350708
24257,0.488037109375,0.5131949186325073,0.8785831332206726,0.9577959179878235
24258,0.166259765625,0.22467917203903198,0.5307213068008423,0.8058631420135498
24259,0.2044270783662796,0.23048563301563263,0.8472668528556824,0.936249852180481
24260,0.197998046875,0.27501508593559265,0.42267662286758423,0.6886157989501953
24261,0.2774251401424408,0.34388047456741333,0.8435737490653992,0.9622024893760681
24262,0.166259765625,0.2632143795490265,0.1844630092382431,0.4780770540237427
24263,0.03125,0.08177362382411957,0.15273310244083405,0.5494323372840881
24264,0.499755859375,0.5501906871795654,0.9037794470787048,0.9651834964752197
24265,0.946533203125,0.9510942697525024,1.0,0.9976606369018555
24267,0.23828125,0.28327661752700806,0.7039180994033813,0.856027364730835
24268,0.02083333395421505,0.0354817733168602,0.3065735995769501,0.5706417560577393
24269,0.2044270783662796,0.28314903378486633,0.3367719352245331,0.6726976633071899
24270,0.228759765625,0.30043643712997437,0.6461858153343201,0.8910908102989197
24271,0.0625,0.1179656833410263,0.24207624793052673,0.521524965763092
24272,0.260498046875,0.3173186779022217,0.8026120662689209,0.9099938869476318
24273,0.488037109375,0.5525149703025818,0.6121358871459961,0.8720788955688477
24274,0.08203125,0.12661314010620117,0.3631143569946289,0.6680524945259094
24275,0.263671875,0.36576658487319946,0.4707868993282318,0.684142529964447
24276,0.304931640625,0.373099148273468,1.0,1.0
24277,0.166259765625,0.19232413172721863,0.8213136792182922,0.8608506917953491
24278,0.518798828125,0.5376558303833008,1.0,0.9927393198013306
24279,0.110107421875,0.214644655585289,0.20503923296928406,0.6318022012710571
24280,0.212890625,0.22640419006347656,0.8789618015289307,0.8694831728935242
24281,0.567138671875,0.6129811406135559,0.4261382520198822,0.7045638561248779
24282,0.110107421875,0.11869049072265625,1.0,0.9709285497665405
24283,0.1875,0.24996162950992584,0.4692787230014801,0.5731509923934937
24284,0.02083333395421505,0.04971059411764145,0.07821311801671982,0.1778632253408432
24285,0.146728515625,0.2181108146905899,0.3012597858905792,0.4060060381889343
24286,0.03125,0.1070556640625,0.060708411037921906,0.2569175064563751
24287,0.490234375,0.5517560839653015,0.5961710214614868,0.7261874079704285
24288,0.3059895932674408,0.3805268108844757,0.4357588291168213,0.742135226726532
24289,0.260498046875,0.3112905025482178,0.34397661685943604,0.4104839563369751
24290,0.3599446713924408,0.4291400611400604,0.5626510977745056,0.6538646817207336
24291,0.953369140625,0.9576480984687805,0.912726640701294,0.7540038824081421
24292,0.3599446713924408,0.4018693268299103,0.5626510977745056,0.5705877542495728
24293,0.606689453125,0.6373687982559204,1.0,0.7683318853378296
24294,0.9444172978401184,0.9523208141326904,0.7589633464813232,0.7104724645614624
24295,0.228759765625,0.27100902795791626,0.6461858153343201,0.5013242363929749
24296,0.23828125,0.3177298903465271,0.2446610927581787,0.413483202457428
24297,0.946533203125,0.9527448415756226,0.8026000261306763,0.7836844325065613
24298,0.2774251401424408,0.37030237913131714,0.36153164505958557,0.5178946256637573
24299,0.47265625,0.47806137800216675,0.4784300625324249,0.5657045841217041
24300,0.2774251401424408,0.36485210061073303,0.36153164505958557,0.598147451877594
24301,0.706298828125,0.7080656290054321,0.871160089969635,0.683426022529602
24302,0.197998046875,0.2297946810722351,0.6871474981307983,0.6650486588478088
24303,0.9466145634651184,0.9518529772758484,0.8072783350944519,0.7376421689987183
24304,0.959228515625,0.960006058216095,0.7631344795227051,0.8527464270591736
24305,0.146728515625,0.1786922961473465,0.48975956439971924,0.3561098575592041
24306,0.304931640625,0.4048805236816406,0.4285714626312256,0.7555385828018188
24307,0.2044270783662796,0.25600960850715637,0.5474918484687805,0.5996867418289185
24308,0.374755859375,0.4503651559352875,0.5307213068008423,0.6892279982566833
24309,0.146728515625,0.2291518747806549,0.48975956439971924,0.7340831160545349
24310,0.0625,0.10651876032352448,0.23463936150074005,0.26442357897758484
24311,0.3599446713924408,0.42668795585632324,0.5626510977745056,0.6173014640808105
24312,0.9673665165901184,0.9679043889045715,0.8748590350151062,0.9371481537818909
24313,0.556884765625,0.5914907455444336,0.8308104276657104,0.6950456500053406
24314,0.518798828125,0.5709958672523499,0.6967307925224304,0.6621462106704712
24315,0.967041015625,0.9674510955810547,1.0,0.9727999567985535
24316,0.466064453125,0.5107077360153198,0.7823625802993774,0.7575023770332336
24317,0.304931640625,0.35458141565322876,1.0,0.7913443446159363
24318,0.518798828125,0.5604536533355713,0.6967307925224304,0.7046987414360046
24319,0.968017578125,0.9680711627006531,1.0,0.9218185544013977
24320,0.05078125,0.12557169795036316,0.08755692839622498,0.2510952949523926
24321,0.499755859375,0.5610446333885193,0.629690945148468,0.7457401156425476
24322,0.3125,0.32321032881736755,0.32727500796318054,0.45093220472335815
24323,0.9673665165901184,0.9676430821418762,1.0,0.7801509499549866
24324,0.967041015625,0.967551052570343,0.9284793138504028,0.8061186671257019
24325,0.968017578125,0.9680771231651306,1.0,0.9704115390777588
24327,0.431884765625,0.4802916347980499,0.7318407297134399,0.8009948134422302
24328,0.091796875,0.10552978515625,0.7653606534004211,0.6992148160934448
24329,0.228759765625,0.2679787874221802,0.3974803686141968,0.4331223964691162
24330,0.0,0.12006325274705887,0.0,0.31318557262420654
24331,0.580322265625,0.591691792011261,1.0,0.7821063995361328
24332,0.304931640625,0.3968145549297333,0.4285714626312256,0.6515657901763916
24333,0.2774251401424408,0.33452534675598145,0.36153164505958557,0.4087815284729004
24334,0.580322265625,0.6163973212242126,0.86592036485672,0.7925162315368652
24335,0.431884765625,0.4768708050251007,0.7318407297134399,0.7061792016029358
24336,0.23828125,0.27863118052482605,0.7039180994033813,0.5250440835952759
24337,0.323974609375,0.3581002354621887,0.47805625200271606,0.46612390875816345
24338,0.499755859375,0.5196608901023865,1.0,0.9443275332450867
24339,0.228759765625,0.2502638101577759,0.6461858153343201,0.538682758808136
24340,0.703369140625,0.705938458442688,0.8588406443595886,0.8094891905784607
24341,0.260498046875,0.3020251989364624,0.8026120662689209,0.6272255778312683
24342,0.61328125,0.618296205997467,0.6327316761016846,0.6201033592224121
24343,0.260498046875,0.30899369716644287,0.8026120662689209,0.6372138261795044
24344,0.47265625,0.5315089821815491,0.5698384642601013,0.6383844017982483
24345,0.166259765625,0.19197621941566467,0.5307213068008423,0.38242101669311523
24346,0.518798828125,0.5560817718505859,0.8046129941940308,0.7636171579360962
24347,0.05078125,0.1542373150587082,0.17690707743167877,0.4935864806175232
24348,0.46875,0.4839574694633484,0.3384338617324829,0.5956853628158569
24349,0.304931640625,0.4065081775188446,0.4285714626312256,0.7369869947433472
24350,0.304931640625,0.36018016934394836,0.4285714626312256,0.426634281873703
24351,0.110107421875,0.1483735889196396,1.0,0.9052116274833679
24352,0.0,0.03011300414800644,0.0,0.23690533638000488
24353,0.08984375,0.12454958260059357,0.3333333134651184,0.4627283811569214
24354,0.02083333395421505,0.02083333395421505,0.23463936150074005,0.1695801019668579
24355,0.304931640625,0.37885308265686035,0.49493172764778137,0.6382882595062256
24356,0.0625,0.15409094095230103,0.11613046377897263,0.3299269676208496
24357,0.580322265625,0.5980463624000549,1.0,0.7907761335372925
24358,0.518798828125,0.5610396862030029,0.6967307925224304,0.7284594178199768
24359,0.393798828125,0.4431559443473816,0.5977610945701599,0.7242925763130188
24360,0.304931640625,0.35062795877456665,0.49493172764778137,0.5160018801689148
24361,0.560546875,0.610725462436676,0.7653606534004211,0.8466086983680725
24362,0.0,0.0,0.0,0.0
24363,0.51953125,0.5774337649345398,0.7039180994033813,0.831425666809082
24364,0.431884765625,0.47385406494140625,0.7318407297134399,0.5969108939170837
24365,0.968017578125,0.9680647253990173,1.0,0.8762779831886292
24366,0.12109375,0.1588490605354309,0.605190634727478,0.6916384100914001
24367,0.21875,0.21875,0.6309297680854797,0.6309297680854797
24368,0.499755859375,0.523992657661438,0.9037794470787048,0.7280514240264893
24369,0.110107421875,0.1951691210269928,0.3333333134651184,0.618668258190155
24370,0.956298828125,0.9600356221199036,1.0,0.8785897493362427
24371,0.959228515625,0.9597960114479065,0.8722942471504211,0.7605296969413757
24372,0.091796875,0.091796875,1.0,1.0
24373,0.95703125,0.9577431678771973,0.7039180397987366,0.8264743089675903
24374,0.3599446713924408,0.43002626299858093,0.5626510977745056,0.6664482355117798
24375,0.466064453125,0.5330129265785217,0.5450960993766785,0.6911592483520508
24376,0.261474609375,0.31799769401550293,0.4285714626312256,0.4415057897567749
24377,0.9388020634651184,0.942020058631897,0.7410414814949036,0.7059536576271057
24378,0.499755859375,0.5510796308517456,0.9037794470787048,0.9658197164535522
24379,0.953369140625,0.9553254246711731,1.0,0.8500101566314697
24380,0.953369140625,0.9571759700775146,0.912726640701294,0.7248132824897766
24381,0.4778645932674408,0.4852343499660492,0.4055802822113037,0.576043963432312
24382,0.0625,0.079132080078125,0.4692787230014801,0.4228372573852539
24383,0.110107421875,0.19084280729293823,0.3333333134651184,0.5062466263771057
24384,0.0,0.0,0.0,0.0
24385,0.606689453125,0.6342449188232422,0.6509066820144653,0.6129921078681946
24386,0.166259765625,0.26873651146888733,0.22745199501514435,0.41993167996406555
24387,0.531982421875,0.5869565606117249,0.7462155222892761,0.790642499923706
24388,0.466064453125,0.509579598903656,0.629499077796936,0.6076153516769409
24389,0.366455078125,0.37850356101989746,0.2856633961200714,0.5872394442558289
24390,0.966796875,0.9674240946769714,0.8748388290405273,0.8804879188537598
24391,0.1106770858168602,0.14981141686439514,0.18525049090385437,0.21974724531173706
24392,0.0,0.05576855689287186,0.0,0.13265353441238403
24393,0.556884765625,0.5884034633636475,0.8308104276657104,0.5758922100067139
24394,0.946533203125,0.9501055479049683,1.0,0.8746350407600403
24395,0.606689453125,0.6348074674606323,1.0,0.8065000176429749
24396,0.304931640625,0.37796539068222046,0.4285714626312256,0.5286592841148376
24397,0.556884765625,0.6016553044319153,0.8308104276657104,0.76505047082901
24398,0.712158203125,0.7126064896583557,0.7497180104255676,0.8015106916427612
24399,0.499755859375,0.5345582365989685,0.9037794470787048,0.7431941032409668
24400,0.518798828125,0.5858728289604187,0.6967307925224304,0.7800413966178894
24401,0.580322265625,0.6097703576087952,0.86592036485672,0.6286643743515015
24402,0.261474609375,0.3458637297153473,0.4285714626312256,0.5982731580734253
24403,0.956298828125,0.9611234068870544,0.7169486284255981,0.8244389295578003
24404,0.1106770858168602,0.2258080095052719,0.16041216254234314,0.382164865732193
24405,0.304931640625,0.39640364050865173,0.4285714626312256,0.5501266717910767
24406,0.05078125,0.07495657354593277,0.13908983767032623,0.22476498782634735
24407,0.703369140625,0.7067106366157532,0.7838867902755737,0.7854486703872681
24408,0.966796875,0.9675388336181641,0.7653606534004211,0.6951227188110352
24409,0.953369140625,0.9559326767921448,1.0,0.872439980506897
24410,0.212890625,0.25519800186157227,0.5679726600646973,0.4941524863243103
24411,0.466064453125,0.5504117012023926,0.5450960993766785,0.5576598644256592
24412,0.606689453125,0.6402788162231445,1.0,0.8715649843215942
24413,0.110107421875,0.1951691210269928,0.3333333134651184,0.618668258190155
24414,0.08984375,0.10382843017578125,0.3333333134651184,0.3187636435031891
24415,0.531982421875,0.5849353075027466,0.7462155222892761,0.7012538313865662
24416,0.091796875,0.091796875,1.0,1.0
24417,0.47265625,0.4782460927963257,0.5961002111434937,0.6382784247398376
24418,0.580322265625,0.6288809776306152,0.86592036485672,0.791999101638794
24419,0.606689453125,0.6217542290687561,1.0,0.7632903456687927
24420,0.304931640625,0.36067745089530945,0.6151177287101746,0.6372588276863098
24421,0.263671875,0.2921525835990906,0.4707868993282318,0.4400393068790436
24422,0.08984375,0.16283521056175232,0.20503923296928406,0.32936450839042664
24423,0.490234375,0.5350114107131958,0.8556691408157349,0.7279849648475647
24424,0.518798828125,0.5644837617874146,1.0,0.9121727347373962
24425,0.261474609375,0.3090588450431824,0.6151177287101746,0.6418473720550537
24426,0.556884765625,0.5810273885726929,0.8308104276657104,0.6494876742362976
24427,0.518798828125,0.5935116410255432,0.6967307925224304,0.8032345771789551
24428,0.966796875,0.9671674966812134,0.9422276020050049,0.9201214909553528
24429,0.712158203125,0.7125325798988342,0.8569586873054504,0.7867302298545837
24430,0.633056640625,0.6371769309043884,0.715326726436615,0.70023512840271
24431,0.166259765625,0.22281120717525482,0.32645606994628906,0.39988335967063904
24432,0.263671875,0.2863032817840576,0.7653606534004211,0.5595301389694214
24433,0.966796875,0.9672220945358276,0.9422276020050049,0.9159073233604431
24434,0.304931640625,0.3585473895072937,1.0,0.7810642123222351
24435,0.2044270783662796,0.22376760840415955,0.5474918484687805,0.36269405484199524
24436,0.499755859375,0.5157834887504578,0.9037794470787048,0.681700587272644
24437,0.956298828125,0.9602985382080078,0.7169486284255981,0.8441277742385864
24438,0.4375,0.4639650881290436,0.8609101176261902,0.8804805874824524
24439,0.393798828125,0.45744478702545166,0.5977610945701599,0.774836003780365
24440,0.23046875,0.28949201107025146,0.32960182428359985,0.4858762323856354
24441,0.431884765625,0.46107229590415955,0.7318407297134399,0.6574329733848572
24442,0.580322265625,0.6099700331687927,0.86592036485672,0.81246018409729
24443,0.4375,0.45786458253860474,0.6735438704490662,0.5433211326599121
24444,0.0,0.0078125,0.0,0.08671382814645767
24445,0.9507649540901184,0.9557138681411743,0.8898733854293823,0.8126111626625061
24446,0.518798828125,0.5726542472839355,0.6967307925224304,0.6324663162231445
24447,0.580322265625,0.6156943440437317,0.86592036485672,0.7512832283973694
24448,0.260498046875,0.3642355799674988,0.34397661685943604,0.4725748598575592
24449,0.956298828125,0.9581144452095032,1.0,0.7829802632331848
24450,0.2774251401424408,0.36757853627204895,0.36153164505958557,0.5632532835006714
24451,0.304931640625,0.36436331272125244,1.0,0.8659475445747375
24452,0.08203125,0.0946197509765625,0.7039180994033813,0.46582311391830444
24453,0.606689453125,0.6270554065704346,1.0,0.9118055105209351
24454,0.962158203125,0.9625070691108704,0.9625431895256042,0.8740190863609314
24455,0.712158203125,0.7125997543334961,0.7497180104255676,0.793482780456543
24456,0.606689453125,0.6387239694595337,0.5334192514419556,0.6316285133361816
24457,0.556884765625,0.587553083896637,0.8308104276657104,0.6091583967208862
24458,0.580322265625,0.605918824672699,1.0,0.8646177053451538
24459,0.1106770858168602,0.19392439723014832,0.2302355170249939,0.47238689661026
24460,0.2774251401424408,0.3346567153930664,0.8435737490653992,0.7333177924156189
24461,0.03125,0.0708322525024414,0.15273310244083405,0.3217967748641968
24462,0.518798828125,0.5914413928985596,0.3716495931148529,0.5550501346588135
24463,0.166259765625,0.21223627030849457,0.5307213068008423,0.44774115085601807
24464,0.968017578125,0.9680667519569397,1.0,0.9753519296646118
24465,0.260498046875,0.3686318099498749,0.397238165140152,0.7299867868423462
24466,0.706298828125,0.7091588973999023,0.871160089969635,0.7008267045021057
24467,0.300537109375,0.3700321912765503,0.5354781746864319,0.723740816116333
24468,0.712158203125,0.7124743461608887,0.8569586873054504,0.76055908203125
24469,0.606689453125,0.6352072358131409,1.0,0.7465700507164001
24470,0.21875,0.25831109285354614,0.3419274091720581,0.38830721378326416
24471,0.110107421875,0.13963459432125092,0.20503923296928406,0.23153027892112732
24472,0.110107421875,0.17006340622901917,0.3951442539691925,0.6036862730979919
24473,0.2774251401424408,0.3400123715400696,0.5188971757888794,0.5648226141929626
24474,0.968017578125,0.9680550694465637,1.0,0.7017323970794678
24475,0.23828125,0.3610113859176636,0.30167919397354126,0.5575854182243347
24476,0.968017578125,0.9680711030960083,1.0,0.9456920623779297
24477,0.3599446713924408,0.41011831164360046,0.26257050037384033,0.3018663823604584
24478,0.956298828125,0.9601828455924988,0.8195018768310547,0.8750778436660767
24479,0.0625,0.0625,1.0,1.0
24480,0.304931640625,0.3621372580528259,1.0,0.8420630693435669
24481,0.197998046875,0.21509727835655212,0.29449179768562317,0.22672602534294128
24482,0.706298828125,0.7098880410194397,0.7139173746109009,0.6516304612159729
24483,0.2774251401424408,0.3219338059425354,0.5188971757888794,0.4666014313697815
24484,0.08984375,0.18499372899532318,0.09298666566610336,0.2740631401538849
24485,0.968017578125,0.9680629372596741,1.0,0.8379386067390442
24486,0.1875,0.2645292580127716,0.11554483324289322,0.21480518579483032
24487,0.304931640625,0.3909919261932373,0.4285714626312256,0.5475847125053406
24488,0.05078125,0.05078125,0.5307212471961975,0.38356634974479675
24489,0.953369140625,0.9577277302742004,0.912726640701294,0.8390737771987915
24490,0.9507649540901184,0.9530578851699829,0.8898733854293823,0.8311324119567871
24491,0.1106770858168602,0.18358564376831055,0.37429505586624146,0.5006296038627625
24492,0.706298828125,0.7101836204528809,0.871160089969635,0.8303757905960083
24493,0.953369140625,0.9573831558227539,0.912726640701294,0.8269371390342712
24494,0.261474609375,0.31787624955177307,0.4285714626312256,0.5320441126823425
24495,0.455078125,0.5066497325897217,0.7342523336410522,0.6695811748504639
24496,0.166259765625,0.2419903576374054,0.22745199501514435,0.31462377309799194
24497,0.968017578125,0.9680776596069336,1.0,0.7756102085113525
24498,0.2774251401424408,0.3030340075492859,0.36153164505958557,0.27822408080101013
24499,0.580322265625,0.6176146268844604,0.86592036485672,0.6566534042358398
24500,0.580322265625,0.6101852655410767,0.86592036485672,0.6043637990951538
24501,0.606689453125,0.6323237419128418,1.0,0.9254894256591797
24502,0.3599446713924408,0.4101964831352234,0.8075588941574097,0.886561393737793
24503,0.606689453125,0.6367652416229248,1.0,0.7678523063659668
24504,0.957763671875,0.9583323001861572,0.8271697163581848,0.8376370668411255
24505,0.300537109375,0.34411153197288513,0.6655102372169495,0.7934106588363647
24506,0.633056640625,0.6368989944458008,0.715326726436615,0.8154475688934326
24507,0.951904296875,0.957103431224823,0.7122209072113037,0.6707807779312134
24508,0.466064453125,0.5107106566429138,0.629499077796936,0.6374918818473816
24509,0.48828125,0.48924481868743896,0.5307213068008423,0.7015177607536316
24510,0.374755859375,0.40408462285995483,0.6128985285758972,0.5753523707389832
24511,0.3059895932674408,0.35231807827949524,0.4357588291168213,0.3456217646598816
24512,0.08203125,0.15939149260520935,0.11613046377897263,0.2611793577671051
24513,0.166259765625,0.21942679584026337,0.22745199501514435,0.29420045018196106
24514,0.2044270783662796,0.25271138548851013,0.3367719352245331,0.40603798627853394
24515,0.580322265625,0.6181561946868896,0.86592036485672,0.7522416710853577
24516,0.08203125,0.1014862060546875,0.23463936150074005,0.23086369037628174
24517,0.967041015625,0.9676671028137207,0.9284793138504028,0.89786297082901
24518,0.431884765625,0.4739486575126648,0.7318407297134399,0.6469790935516357
24519,0.556884765625,0.6001081466674805,0.5407800078392029,0.5787413716316223
24520,0.580322265625,0.6270328760147095,0.86592036485672,0.732651948928833
24521,0.580322265625,0.6319862008094788,0.86592036485672,0.8803272843360901
24522,0.150390625,0.24953866004943848,0.19393208622932434,0.4285268187522888
24523,0.518798828125,0.5784944891929626,0.6967307925224304,0.699080228805542
24524,0.260498046875,0.2660239040851593,0.9514426589012146,0.938318133354187
24525,0.2774251401424408,0.3097391724586487,0.8435737490653992,0.6484522223472595
24526,0.580322265625,0.6082398891448975,0.86592036485672,0.7261759638786316
24527,0.2044270783662796,0.2853633165359497,0.3367719352245331,0.44894006848335266
24528,0.260498046875,0.30850207805633545,0.34397661685943604,0.34787073731422424
24529,0.304931640625,0.39420345425605774,0.4285714626312256,0.6377416253089905
24530,0.431884765625,0.4720189571380615,0.7318407297134399,0.6305764317512512
24531,0.701171875,0.7085292339324951,0.5150786638259888,0.6260366439819336
24532,0.499755859375,0.5508365035057068,0.629690945148468,0.6885726451873779
24533,0.466064453125,0.5340583920478821,0.5450960993766785,0.5196754336357117
24534,0.9673665165901184,0.9677784442901611,1.0,0.9169154763221741
24535,0.03125,0.0508161261677742,0.29608193039894104,0.6340499520301819
24536,0.23046875,0.25496724247932434,0.23505397140979767,0.28598999977111816
24537,0.488037109375,0.5565744638442993,0.6121358871459961,0.5639093518257141
24538,0.1875,0.19384765625,0.5562983751296997,0.5049039721488953
24539,0.966796875,0.9671725630760193,0.8748388290405273,0.6535600423812866
24540,0.488037109375,0.527312159538269,0.7069194316864014,0.6863589882850647
24541,0.967041015625,0.9678117036819458,0.8122885227203369,0.8610366582870483
24542,0.12109375,0.1320037841796875,0.3910655975341797,0.29850122332572937
24543,0.580322265625,0.6095098257064819,0.5636333227157593,0.5172340869903564
24544,0.556884765625,0.5748180150985718,0.8308104276657104,0.6366923451423645
24545,0.606689453125,0.6383954882621765,1.0,0.8058048486709595
24546,0.12109375,0.2035466432571411,0.16759954392910004,0.23961198329925537
24547,0.02083333395421505,0.07494930922985077,0.04811027646064758,0.16758552193641663
24548,0.2774251401424408,0.35608309507369995,0.36153164505958557,0.45163634419441223
24549,0.951904296875,0.958393931388855,0.7122209072113037,0.7717241048812866
24550,0.968017578125,0.9680777192115784,1.0,0.7419964075088501
24551,0.0625,0.0625,1.0,1.0
24552,0.51953125,0.5389794707298279,0.7039180994033813,0.5175601840019226
24553,0.2774251401424408,0.39812707901000977,0.23532335460186005,0.549939751625061
24554,0.9466145634651184,0.9534242153167725,0.6615661382675171,0.6892510652542114
24555,0.03125,0.03125,0.29608193039894104,0.1909208595752716
24556,0.967041015625,0.9676582217216492,0.8122885227203369,0.8642969727516174
24557,0.197998046875,0.26058536767959595,0.34009110927581787,0.4415791630744934
24558,0.110107421875,0.15233880281448364,0.5158474445343018,0.6034522652626038
24559,0.02083333395421505,0.0451405867934227,0.038710154592990875,0.09807125478982925
24560,0.263671875,0.3376716375350952,0.4707868993282318,0.6034024953842163
24561,0.0,0.04655761644244194,0.0,0.13623444736003876
24562,0.23828125,0.3153532147407532,0.3483913838863373,0.48664724826812744
24563,0.966796875,0.9674634337425232,0.8748388290405273,0.8643536567687988
24564,0.488037109375,0.5439441800117493,0.6121358871459961,0.5861555337905884
24565,0.953369140625,0.9579843282699585,0.912726640701294,0.7881783246994019
24566,0.2774251401424408,0.3297888934612274,0.5188971757888794,0.49157342314720154
24567,0.580322265625,0.6118794679641724,0.86592036485672,0.6892790198326111
24568,0.580322265625,0.6206629276275635,0.86592036485672,0.7152267098426819
24569,0.304931640625,0.37956616282463074,0.4285714626312256,0.5380531549453735
24570,0.556884765625,0.5959692001342773,0.8308104276657104,0.7918118834495544
24571,0.091796875,0.091796875,0.3948093354701996,0.3295833468437195
24572,0.23828125,0.3452901244163513,0.30167919397354126,0.37453770637512207
24573,0.432373046875,0.44049620628356934,0.4040961265563965,0.6758619546890259
24574,0.228759765625,0.27867406606674194,0.276936799287796,0.30948880314826965
24575,0.05078125,0.0633697509765625,0.17690707743167877,0.16737018525600433
24576,0.0625,0.0625,0.4692787230014801,0.39038002490997314
