qid,err@3,err@10,ndcg@3,ndcg@10
032047,0.21875,0.23990653455257416,0.4702019691467285,0.6178527474403381
032049,0.9507649540901184,0.9538891911506653,0.8898733854293823,0.9226787090301514
032053,0.197998046875,0.27988073229789734,0.13742950558662415,0.2381943315267563
032054,0.701171875,0.7039119005203247,0.7184317708015442,0.7498738169670105
032055,0.959228515625,0.9597592949867249,0.8722942471504211,0.815406322479248
032057,0.499755859375,0.5777443051338196,0.3358892798423767,0.546897292137146
032059,0.9673665165901184,0.967907726764679,0.8748590350151062,0.9271472096443176
032061,0.943115234375,0.9504548907279968,0.6126077175140381,0.7033775448799133
032062,0.469970703125,0.4777040481567383,0.4431702494621277,0.6178341507911682
032065,0.706298828125,0.7098373174667358,0.871160089969635,0.8564102053642273
032067,0.968017578125,0.9680467247962952,1.0,0.9468852281570435
032070,0.584228515625,0.5847136974334717,0.7139173746109009,0.768833577632904
032071,0.0,0.24114397168159485,0.0,0.24362052977085114
032076,0.957763671875,0.9581897854804993,0.8271697163581848,0.8026257157325745
032078,0.967041015625,0.9675025939941406,0.8122885227203369,0.7378213405609131
032079,0.951171875,0.95281982421875,0.9282863140106201,0.9900571703910828
032083,0.701904296875,0.7097382545471191,0.5307213068008423,0.6318459510803223
032086,0.967041015625,0.967041015625,1.0,1.0
032088,0.47265625,0.5471938848495483,0.3039627969264984,0.5209829211235046
032091,0.947998046875,0.9546144604682922,0.5985158681869507,0.810483455657959
032094,0.0,0.2008056640625,0.0,0.44383934140205383
032097,0.94140625,0.9433428049087524,0.8970906734466553,0.9424834251403809
032099,0.951171875,0.9573465585708618,0.6074502468109131,0.6854174733161926
032105,0.510498046875,0.5141029357910156,0.6093400716781616,0.7153728008270264
032106,0.0625,0.1064453125,0.03128524869680405,0.061053719371557236
032108,0.947998046875,0.9545809030532837,0.5985158681869507,0.8365115523338318
032111,0.23828125,0.3973408639431,0.21514107286930084,0.6306080222129822
032113,0.488037109375,0.488037109375,0.9721211791038513,0.9721211791038513
032116,0.951171875,0.9541473388671875,0.8472716808319092,0.89924556016922
032117,0.393798828125,0.4037453830242157,0.8579513430595398,0.7126999497413635
032118,0.9668782353401184,0.9674109220504761,0.7810032963752747,0.8001505732536316
032125,0.953369140625,0.9549498558044434,0.912726640701294,0.7919188737869263
032126,0.962158203125,0.9626947045326233,0.8420895934104919,0.9469205141067505
032127,0.23828125,0.32402071356773376,0.2446610927581787,0.5198042392730713
032128,0.95703125,0.9576082229614258,0.7039180397987366,0.6709131002426147
032132,0.712158203125,0.7126338481903076,0.7497180104255676,0.8286970853805542
032133,0.953369140625,0.9574146270751953,0.7479812502861023,0.7103654742240906
032135,0.956298828125,0.9595115780830383,0.8195018768310547,0.8848112225532532
032137,0.4375,0.5208914875984192,0.30545666813850403,0.6324458718299866
032141,0.1875,0.20654296875,0.16310739517211914,0.20965291559696198
032144,0.3125,0.3192545473575592,0.28886207938194275,0.4992247223854065
032145,0.571533203125,0.5772705674171448,0.6676040887832642,0.7826204895973206
032146,0.0,0.04374999925494194,0.0,0.2154262661933899
032155,0.508056640625,0.5119234323501587,0.5334192514419556,0.5666545629501343
032156,0.2044270783662796,0.2460835725069046,0.37262624502182007,0.6077271699905396
032161,0.9375,0.9498487114906311,0.5364049673080444,0.7553251385688782
032162,0.09375,0.1180826798081398,0.35098522901535034,0.5845001935958862
032167,0.0625,0.24594879150390625,0.05020960420370102,0.4780474007129669
032168,0.197998046875,0.34783393144607544,0.1916866898536682,0.49207741022109985
032169,0.9375,0.9503011703491211,0.5364049673080444,0.729990541934967
032170,0.947998046875,0.9545316100120544,0.6841284036636353,0.7792539000511169
032171,0.9668782353401184,0.9676235914230347,0.7810032963752747,0.9081019163131714
032173,0.46875,0.47908756136894226,0.3384338617324829,0.5053555965423584
032174,0.953369140625,0.9578164219856262,0.7479812502861023,0.7235397696495056
032175,0.51953125,0.5491943359375,0.45818498730659485,0.5945900678634644
032176,0.0,0.1875,0.0,0.16696147620677948
032179,0.5694172978401184,0.5735976696014404,0.6197949647903442,0.6925742030143738
032180,0.966796875,0.9669438004493713,0.7653606534004211,0.7024555206298828
032182,0.4375,0.4884628355503082,0.5419421792030334,0.7332343459129333
032184,0.9673665165901184,0.9674881100654602,1.0,0.9989661574363708
032185,0.95703125,0.95703125,0.8665862679481506,0.8139542937278748
032190,0.606689453125,0.6503718495368958,0.5334192514419556,0.8030452132225037
032191,0.951904296875,0.9577234983444214,0.6230928897857666,0.6340419054031372
032193,0.490234375,0.5450423955917358,0.6884825229644775,0.8990876078605652
032196,0.9388020634651184,0.9417284727096558,0.7782489061355591,0.8776047825813293
032199,0.95703125,0.9572901725769043,0.8046074509620667,0.8418844938278198
032202,0.703369140625,0.703369140625,0.8588406443595886,0.8588406443595886
032203,0.968017578125,0.9680567383766174,1.0,0.9386258125305176
032204,0.51953125,0.5563629269599915,0.7039180994033813,0.9058071374893188
032205,0.957763671875,0.9583994150161743,0.7236568927764893,0.7013940811157227
032206,0.95703125,0.957502007484436,0.7039180397987366,0.7450506687164307
032214,0.939453125,0.9431896209716797,0.7848228216171265,0.8957521915435791
032215,0.197998046875,0.25456905364990234,0.42267662286758423,0.6602656841278076
032216,0.95703125,0.9579695463180542,0.7039180397987366,0.9055235981941223
032217,0.260498046875,0.260498046875,0.49370092153549194,0.47405606508255005
032218,0.261474609375,0.32860851287841797,0.30563369393348694,0.5538284182548523
032221,0.46875,0.4721516966819763,0.4524630308151245,0.5190614461898804
032223,0.9507649540901184,0.9564555287361145,0.7292529344558716,0.9037061929702759
032225,0.490234375,0.5045166015625,0.8556691408157349,0.9584925174713135
032226,0.9668782353401184,0.9675344228744507,0.7810032963752747,0.9047113060951233
032227,0.712158203125,0.7126975655555725,0.7497180104255676,0.7561659216880798
032228,0.951171875,0.957659900188446,0.8472716808319092,0.9199913740158081
032231,0.19921875,0.2474212646484375,0.3776274025440216,0.608154833316803
032234,0.951171875,0.9564852118492126,0.694340705871582,0.8630550503730774
032236,0.956298828125,0.9609336853027344,0.8195018768310547,0.9260731935501099
032237,0.365234375,0.4651925265789032,0.23202729225158691,0.6472785472869873
032240,0.962158203125,0.9624208211898804,0.9625431895256042,0.9217665195465088
032241,0.966796875,0.9673064947128296,0.8748388290405273,0.9789193272590637
032242,0.21875,0.2338169664144516,0.42495885491371155,0.5004411935806274
032245,0.584228515625,0.584488570690155,0.7139173746109009,0.7671077251434326
032248,0.388427734375,0.3944851756095886,0.496870219707489,0.6346369981765747
032250,0.9507649540901184,0.9565474987030029,0.6379934549331665,0.772331953048706
032254,0.150390625,0.16229248046875,0.7002755999565125,0.8045321106910706
032258,0.962158203125,0.9625465273857117,0.8420895934104919,0.9281519651412964
032260,0.951171875,0.9522705078125,0.9282863140106201,0.9793761968612671
032261,0.0,0.20335505902767181,0.0,0.38636910915374756
032262,0.9466145634651184,0.9500157237052917,0.8072783350944519,0.9151320457458496
032265,0.9673665165901184,0.967849612236023,0.8748590350151062,0.9237643480300903
032266,0.431884765625,0.4948257505893707,0.3415256440639496,0.7207173705101013
032267,0.968017578125,0.9680449366569519,1.0,0.8313102722167969
032268,0.939453125,0.9503921270370483,0.489017516374588,0.6480599641799927
032270,0.701904296875,0.7052649855613708,0.7402501106262207,0.7579478621482849
032273,0.3125,0.314849853515625,0.40776848793029785,0.47159597277641296
032275,0.968017578125,0.9680668115615845,1.0,0.8989549875259399
032276,0.966796875,0.9670822620391846,0.8748388290405273,0.8602555394172668
032279,0.959228515625,0.9593933820724487,0.8722942471504211,0.7916486859321594
032280,0.947998046875,0.9510005116462708,0.9146330952644348,0.934658408164978
032281,0.46875,0.4716796875,0.5145465135574341,0.5847930312156677
032282,0.09375,0.2716207504272461,0.05921638384461403,0.40664058923721313
032283,0.450927734375,0.4572550058364868,0.42870715260505676,0.6215946078300476
032284,0.967041015625,0.9672868251800537,0.9284793138504028,0.9504206776618958
032285,0.962158203125,0.9625040888786316,0.8420895934104919,0.860454261302948
032286,0.365234375,0.45649078488349915,0.35457679629325867,0.6569775342941284
032288,0.9507649540901184,0.9563660025596619,0.7292529344558716,0.7958175539970398
032289,0.659423828125,0.6631959676742554,0.5918076038360596,0.6937130093574524
032292,0.393798828125,0.40540313720703125,0.8579513430595398,0.8545385599136353
032293,0.388427734375,0.4000207185745239,0.3716495931148529,0.6784818172454834
032299,0.9673665165901184,0.967697262763977,0.8748590350151062,0.828994870185852
032305,0.393798828125,0.4680335521697998,0.31885725259780884,0.5952246189117432
032307,0.939453125,0.9535940289497375,0.489017516374588,0.719560444355011
032309,0.967041015625,0.9678111672401428,0.8122885227203369,0.8565593361854553
032313,0.959228515625,0.9596357345581055,0.8722942471504211,0.7904416918754578
032314,0.30078125,0.32525330781936646,0.6128985285758972,0.7297793030738831
032316,0.9375,0.9479079842567444,0.4692787230014801,0.6712868213653564
032319,0.9375,0.9522530436515808,0.4692787230014801,0.6676057577133179
032322,0.943359375,0.9521089196205139,0.5284951329231262,0.622995138168335
032323,0.701171875,0.7078225016593933,0.5887562036514282,0.6139982342720032
032324,0.560546875,0.6068424582481384,0.4082580804824829,0.5469036102294922
032327,0.450927734375,0.450927734375,0.6399738192558289,0.6399738192558289
032328,0.943359375,0.9486491084098816,0.6040917634963989,0.614749014377594
032330,0.943359375,0.9522187113761902,0.5284951329231262,0.60017991065979
032331,0.9375,0.9375,0.7171369194984436,0.6418733596801758
032334,0.9507649540901184,0.957526683807373,0.7292529344558716,0.9209956526756287
032337,0.9466145634651184,0.9533823132514954,0.5787770748138428,0.6199944019317627
032339,0.967041015625,0.9674609303474426,0.8122885227203369,0.78535395860672
032342,0.1106770858168602,0.2544911503791809,0.13009387254714966,0.48336848616600037
032343,0.1458333432674408,0.2129293531179428,0.23463937640190125,0.524975061416626
032347,0.0,0.189453125,0.0,0.25363442301750183
032348,0.580322265625,0.6407188773155212,0.5636333227157593,0.8013692498207092
032349,0.947998046875,0.9560917615890503,0.5985158681869507,0.8694321513175964
032351,0.968017578125,0.9680771231651306,1.0,0.961739718914032
032353,0.95703125,0.9577474594116211,0.7039180397987366,0.8392053842544556
032356,0.953369140625,0.9586173892021179,0.7479812502861023,0.9104706048965454
032357,0.9375,0.9428253173828125,0.6545500159263611,0.7164442539215088
032360,0.706298828125,0.7091773748397827,0.871160089969635,0.885641872882843
032361,0.701171875,0.70941162109375,0.5887562036514282,0.8197731971740723
032363,0.469970703125,0.47570738196372986,0.3877114951610565,0.3854794204235077
032364,0.701171875,0.7030532956123352,0.7184317708015442,0.8084166646003723
032368,0.962158203125,0.9625341296195984,0.8420895934104919,0.7159830331802368
032369,0.47265625,0.4775937497615814,0.4784300625324249,0.45723259449005127
032371,0.505615234375,0.5070844888687134,0.4607907235622406,0.4553021192550659
032372,0.51953125,0.5527786016464233,0.7039180994033813,0.8219535946846008
032373,0.943115234375,0.9507744312286377,0.5359453558921814,0.7109997868537903
032374,0.951904296875,0.958448052406311,0.7122209072113037,0.8732658624649048
032376,0.9673665165901184,0.9676701426506042,0.8748590350151062,0.8026576638221741
032377,0.9375,0.9453801512718201,0.4692787230014801,0.4750434160232544
032378,0.263671875,0.27398681640625,0.90728360414505,0.9871451258659363
032379,0.956298828125,0.9595730304718018,0.7169486284255981,0.8455514907836914
032380,0.488037109375,0.5918879508972168,0.3265250623226166,0.6724581122398376
032383,0.518798828125,0.5763036012649536,0.6967307925224304,0.9189026355743408
032387,0.5757649540901184,0.5775130391120911,0.6966133713722229,0.7192075848579407
032388,0.0,0.0162527896463871,0.0,0.013704439625144005
032389,0.30078125,0.3377493917942047,0.3454500138759613,0.49271485209465027
032390,0.508056640625,0.508056640625,0.46666663885116577,0.35443204641342163
032391,0.968017578125,0.968059778213501,1.0,0.9874728322029114
032393,0.9673665165901184,0.9673817753791809,1.0,0.8187211155891418
032394,0.3599446713924408,0.43665626645088196,0.26257050037384033,0.6547488570213318
032400,0.967041015625,0.967473566532135,0.9284793138504028,0.948082447052002
032401,0.166259765625,0.31129583716392517,0.12132726609706879,0.40551602840423584
032402,0.712158203125,0.7126027345657349,0.7497180104255676,0.7936566472053528
032403,0.956298828125,0.9589595794677734,1.0,0.9991666674613953
032404,0.23828125,0.3382455110549927,0.19636499881744385,0.41137468814849854
032405,0.633056640625,0.6381226181983948,0.5862115621566772,0.6700521111488342
032406,0.212890625,0.29620361328125,0.386565625667572,0.7075284719467163
032408,0.967041015625,0.9673931002616882,0.9284793138504028,0.8626225590705872
032409,0.953369140625,0.956265389919281,0.912726640701294,0.9225337505340576
032410,0.968017578125,0.968017578125,1.0,1.0
032413,0.344482421875,0.4055582284927368,0.2789551615715027,0.6215428709983826
032416,0.05078125,0.1544988602399826,0.04044242203235626,0.1808030903339386
032418,0.659423828125,0.6605387926101685,0.8254533410072327,0.8062605857849121
032419,0.501953125,0.5046383738517761,0.5002721548080444,0.49470165371894836
032421,0.701171875,0.704105794429779,0.7184317708015442,0.7825185656547546
032422,0.469970703125,0.47760728001594543,0.3877114951610565,0.5185248851776123
032423,0.4375,0.4867187440395355,0.30545666813850403,0.4236234426498413
032425,0.150390625,0.3340355157852173,0.13830174505710602,0.584583044052124
032426,0.946533203125,0.9539961218833923,0.575423002243042,0.682437539100647
032427,0.61328125,0.6216989755630493,0.5185247659683228,0.7554143667221069
032428,0.946533203125,0.9523957967758179,0.6577322483062744,0.7516292333602905
032429,0.61328125,0.6184260845184326,0.5185247659683228,0.5829225182533264
032430,0.606689453125,0.6312410235404968,1.0,0.9417726397514343
032431,0.4375,0.4375,0.5874204039573669,0.5874204039573669
032433,0.556884765625,0.6009790897369385,0.5407800078392029,0.7580627799034119
032434,0.606689453125,0.6505988836288452,0.46666663885116577,0.6654121279716492
032436,0.947998046875,0.9534441828727722,0.5985158681869507,0.6090683341026306
032437,0.9673665165901184,0.9677087664604187,0.8748590350151062,0.86936354637146
032439,0.633056640625,0.633056640625,0.7837249636650085,0.7837249636650085
032442,0.959228515625,0.9595049619674683,0.8722942471504211,0.8040652871131897
032443,0.962158203125,0.9626007080078125,0.8420895934104919,0.7419528365135193
032445,0.431884765625,0.47657251358032227,0.4763599932193756,0.623273491859436
032446,0.531982421875,0.587242066860199,0.3482339084148407,0.6551173329353333
032448,0.0625,0.08203125,0.15642623603343964,0.2789037227630615
032450,0.4778645932674408,0.4842100441455841,0.4635950028896332,0.6390500664710999
032451,0.962158203125,0.962688148021698,0.8420895934104919,0.8616746068000793
032452,0.584228515625,0.5849992036819458,0.6245770454406738,0.7763012647628784
032453,0.0,0.13461169600486755,0.0,0.44036665558815
032454,0.3125,0.3178253173828125,0.2682024836540222,0.3767218291759491
032460,0.712158203125,0.712310254573822,0.8569586873054504,0.846345841884613
032461,0.701171875,0.7066650390625,0.5887562036514282,0.7798274755477905
032462,0.508056640625,0.5082550048828125,0.7131452560424805,0.7128592133522034
032465,0.946533203125,0.9564948081970215,0.575423002243042,0.7293353080749512
032468,0.2774251401424408,0.28709539771080017,1.0,1.0
032473,0.21875,0.2877853512763977,0.3419274091720581,0.6387571692466736
032474,0.9673665165901184,0.9678988456726074,0.8748590350151062,0.7486290335655212
032475,0.47265625,0.5386685132980347,0.3709116578102112,0.44261160492897034
032484,0.531982421875,0.6050757169723511,0.39804574847221375,0.69814532995224
032485,0.505615234375,0.505615234375,0.6878681778907776,0.6878681778907776
032486,0.943115234375,0.9490931034088135,0.7475366592407227,0.8209525942802429
032487,0.0,0.1875,0.0,0.1791282445192337
032489,0.712158203125,0.7126731872558594,0.7497180104255676,0.8418576121330261
032490,0.959228515625,0.9597524404525757,0.7631344795227051,0.7976290583610535
032491,0.701904296875,0.7063074111938477,0.7402501106262207,0.7539065480232239
032498,0.9668782353401184,0.9674248695373535,0.7810032963752747,0.7798189520835876
032499,0.951904296875,0.9584560990333557,0.6230928897857666,0.7675470113754272
032500,0.0,0.148335263133049,0.0,0.22037407755851746
032502,0.9673665165901184,0.967583417892456,1.0,0.8293464183807373
032504,0.956298828125,0.9611400365829468,0.7169486284255981,0.8970361351966858
032509,0.943359375,0.9558688998222351,0.5284951329231262,0.7922957539558411
032510,0.943115234375,0.9517483115196228,0.6126077175140381,0.8344645500183105
032511,0.703369140625,0.7078810334205627,0.6423966884613037,0.7323406934738159
032512,0.518798828125,0.590311586856842,0.3251410126686096,0.7003975510597229
032513,0.956298828125,0.9602699279785156,0.7169486284255981,0.8374956846237183
032514,0.951904296875,0.9586490392684937,0.6230928897857666,0.7614557147026062
032515,0.46875,0.4717881977558136,0.3384338617324829,0.3735199570655823
032516,0.9673665165901184,0.9677358865737915,0.8748590350151062,0.7601538896560669
032520,0.432373046875,0.44027480483055115,0.4618985950946808,0.6966436505317688
032522,0.962158203125,0.9623982310295105,0.9625431895256042,0.8746137022972107
032523,0.393798828125,0.4677119255065918,0.31885725259780884,0.6191057562828064
032524,0.947998046875,0.9521337747573853,0.5985158681869507,0.5747140645980835
032526,0.701904296875,0.7099311351776123,0.5307213068008423,0.6603092551231384
032528,0.95703125,0.957671046257019,0.8046074509620667,0.8696393370628357
032529,0.947998046875,0.952803909778595,0.5985158681869507,0.6439111232757568
032530,0.61328125,0.6192806363105774,0.4536360800266266,0.6381762027740479
032531,0.951171875,0.9542480707168579,0.694340705871582,0.5991808176040649
032532,0.4375,0.5305999517440796,0.33466389775276184,0.6487034559249878
032533,0.9375,0.947723388671875,0.4692787230014801,0.7066357731819153
032535,0.9673665165901184,0.9677016735076904,0.8748590350151062,0.925639808177948
032536,0.09375,0.2466227263212204,0.10882609337568283,0.4629382789134979
032537,0.947998046875,0.9559498429298401,0.5985158681869507,0.6959711313247681
032538,0.0625,0.09201660007238388,0.23463936150074005,0.3776748478412628
032539,0.9466145634651184,0.9491538405418396,0.5787770748138428,0.49580347537994385
032540,0.966796875,0.9672099351882935,0.8748388290405273,0.7593683004379272
032541,0.701171875,0.7096905708312988,0.5887562036514282,0.8296734094619751
032542,0.431884765625,0.48214879631996155,0.390377938747406,0.5034952759742737
032543,0.968017578125,0.9680503606796265,1.0,0.8952592611312866
032544,0.943359375,0.9494248032569885,0.5284951329231262,0.5329558253288269
032548,0.947998046875,0.9504432678222656,0.9146330952644348,0.9426419138908386
032553,0.968017578125,0.9680764675140381,1.0,0.9106491804122925
032554,0.946533203125,0.9551165699958801,0.6577322483062744,0.7547761797904968
032555,0.09375,0.169921875,0.10290931165218353,0.2988077998161316
032556,0.499755859375,0.499755859375,0.9037794470787048,0.7780851721763611
032557,0.953369140625,0.9565436840057373,0.912726640701294,0.9642161130905151
032558,0.9375,0.9477061033248901,0.4692787230014801,0.6950112581253052
032560,0.09375,0.11279296875,0.29608193039894104,0.44412288069725037
032561,0.953369140625,0.9585391283035278,0.912726640701294,0.9670665264129639
032565,0.374755859375,0.4625147581100464,0.28309693932533264,0.6764154434204102
032566,0.584228515625,0.5848676562309265,0.6245770454406738,0.7595725655555725
032568,0.46875,0.47332626581192017,0.3384338617324829,0.35336416959762573
032573,0.94140625,0.9501364827156067,0.5162065625190735,0.7307133078575134
032574,0.939453125,0.9441909790039062,0.6820816993713379,0.6531083583831787
032576,0.490234375,0.5328383445739746,0.38805168867111206,0.43152177333831787
032577,0.9466145634651184,0.9513052105903625,0.8072783350944519,0.7730291485786438
032579,0.968017578125,0.9680769443511963,1.0,0.9555635452270508
032580,0.9466145634651184,0.955130398273468,0.5787770748138428,0.726796567440033
032581,0.580322265625,0.6197723150253296,0.5636333227157593,0.6224344968795776
032582,0.968017578125,0.9680585861206055,1.0,0.9326782822608948
032583,0.5757649540901184,0.5794215798377991,0.5708760023117065,0.5161455273628235
032585,0.3599446713924408,0.4344858229160309,0.26257050037384033,0.5415215492248535
032586,0.9668782353401184,0.967572033405304,0.892719030380249,0.9726218581199646
032589,0.508056640625,0.513357400894165,0.5334192514419556,0.718503475189209
032593,0.606689453125,0.6262497901916504,0.6509066820144653,0.6312386989593506
032596,0.968017578125,0.9680290222167969,1.0,0.9114933609962463
032598,0.0,0.0486111119389534,0.0,0.07395339757204056
032602,0.953369140625,0.9552772045135498,0.912726640701294,0.8332709670066833
032604,0.9673665165901184,0.9674695134162903,1.0,0.9618445038795471
032606,0.659423828125,0.664143979549408,0.6764605641365051,0.79273921251297
032608,0.9673665165901184,0.967694878578186,0.8748590350151062,0.796076238155365
032609,0.633056640625,0.6344946026802063,0.715326726436615,0.6958683729171753
032610,0.455078125,0.455078125,0.5907889604568481,0.5556217432022095
032613,0.3059895932674408,0.4162718951702118,0.2836383283138275,0.5895656943321228
032616,0.9507649540901184,0.9577116370201111,0.6379934549331665,0.788130521774292
032617,0.962158203125,0.9624738693237305,0.8420895934104919,0.8151386976242065
032619,0.3059895932674408,0.41716474294662476,0.23244215548038483,0.5341469645500183
032620,0.659423828125,0.6633501052856445,0.6764605641365051,0.8009128570556641
032621,0.9507649540901184,0.955597996711731,0.6379934549331665,0.6766049265861511
032622,0.365234375,0.4314158856868744,0.3236317038536072,0.5680319666862488
032623,0.571533203125,0.5799809098243713,0.49935534596443176,0.7010303735733032
032624,0.946533203125,0.9524705410003662,0.8026000261306763,0.821433424949646
032626,0.701171875,0.701171875,0.7871269583702087,0.7871269583702087
032627,0.263671875,0.35989195108413696,0.23391999304294586,0.5594708323478699
032628,0.9375,0.9477425217628479,0.4692787230014801,0.5955545902252197
032629,0.947998046875,0.9536041617393494,0.8348100185394287,0.8783122301101685
032630,0.510498046875,0.5143861770629883,0.6093400716781616,0.6982986927032471
032631,0.3125,0.3164306581020355,0.40776848793029785,0.4942478537559509
032632,0.1458333432674408,0.2424359768629074,0.15272833406925201,0.3657779097557068
032633,0.703369140625,0.7035675048828125,0.6423966884613037,0.5205386281013489
032634,0.518798828125,0.5936405062675476,0.3716495931148529,0.7211282849311829
032636,0.956298828125,0.9603603482246399,0.7169486284255981,0.7578380703926086
032639,0.943359375,0.9499847292900085,0.8076295852661133,0.9324063062667847
032640,0.23828125,0.24859619140625,0.8344475626945496,0.9143090844154358
032642,0.706298828125,0.7081003189086914,0.7139173746109009,0.615393877029419
032643,0.606689453125,0.640972912311554,0.5334192514419556,0.6487678289413452
032645,0.956298828125,0.9599218368530273,0.8195018768310547,0.8986920118331909
032646,0.35546875,0.36259910464286804,0.3709116578102112,0.5888614058494568
032647,0.633056640625,0.638627290725708,0.5862115621566772,0.7076817750930786
032648,0.947998046875,0.9510981440544128,0.8348100185394287,0.79547518491745
032649,0.951904296875,0.9557833075523376,0.7122209072113037,0.7150749564170837
032650,0.967041015625,0.9675347805023193,0.8122885227203369,0.897645115852356
032652,0.304931640625,0.37888896465301514,0.20000000298023224,0.33448144793510437
032653,0.962158203125,0.9625701904296875,0.8420895934104919,0.7037622928619385
032654,0.567138671875,0.620341420173645,0.5199966430664062,0.6576528549194336
032655,0.951904296875,0.9572201371192932,0.8690900206565857,0.878429114818573
032656,0.560546875,0.5825375914573669,0.8838695287704468,0.9298701286315918
032658,0.556884765625,0.6093021631240845,0.5407800078392029,0.7568876147270203
032660,0.560546875,0.6063469648361206,0.7653606534004211,0.9591991901397705
032661,0.560546875,0.564501941204071,0.4082580804824829,0.33338993787765503
032662,0.953369140625,0.9558285474777222,0.912726640701294,0.8352537751197815
032664,0.953369140625,0.9576684236526489,0.7479812502861023,0.7544089555740356
032666,0.956298828125,0.9602704048156738,0.7169486284255981,0.8503833413124084
032667,0.939453125,0.9470723271369934,0.489017516374588,0.472448468208313
032669,0.606689453125,0.6484031677246094,0.6509066820144653,0.7788053154945374
032670,0.706298828125,0.706298828125,0.871160089969635,0.7273368239402771
032671,0.94140625,0.94140625,0.7888506054878235,0.7888506054878235
032674,0.44140625,0.4497389793395996,0.3284950852394104,0.5164769291877747
032676,0.0,0.15534815192222595,0.0,0.44417837262153625
032677,0.508056640625,0.5149598121643066,0.46666663885116577,0.5633631348609924
032678,0.1875,0.2849365174770355,0.2886616587638855,0.5700891613960266
032679,0.959228515625,0.9594697952270508,0.8722942471504211,0.7774659395217896
032683,0.967041015625,0.9671897888183594,0.9284793138504028,0.8656770586967468
032684,0.44921875,0.5407886505126953,0.2682024836540222,0.5188424587249756
032685,0.957763671875,0.9586349129676819,0.7236568927764893,0.7131468653678894
032688,0.431884765625,0.4526658356189728,0.8451594114303589,0.8508824706077576
032689,0.505615234375,0.5151751041412354,0.4607907235622406,0.6749969124794006
032690,0.951904296875,0.9572218060493469,0.8690900206565857,0.8802540898323059
032692,0.9673665165901184,0.9677736759185791,0.8748590350151062,0.8736615777015686
032693,0.469970703125,0.474931001663208,0.5407800078392029,0.5911782383918762
032697,0.966796875,0.9672759771347046,0.7653606534004211,0.7613222002983093
032698,0.432373046875,0.4370634853839874,0.4618985950946808,0.520711362361908
032699,0.633056640625,0.63995361328125,0.5862115621566772,0.7658113241195679
032701,0.962158203125,0.9626081585884094,0.8420895934104919,0.8988546133041382
032702,0.959228515625,0.95987868309021,0.7631344795227051,0.8919692039489746
032703,0.374755859375,0.46728000044822693,0.3454500138759613,0.6920290589332581
032705,0.953369140625,0.9603444337844849,0.6543781161308289,0.8258614540100098
032706,0.9466145634651184,0.955173671245575,0.5787770748138428,0.7152496576309204
032708,0.962158203125,0.9626963138580322,0.8420895934104919,0.9280079007148743
032710,0.9673665165901184,0.9678959846496582,0.8748590350151062,0.8420366644859314
032711,0.712158203125,0.7126373648643494,0.7497180104255676,0.7976973056793213
032712,0.9673665165901184,0.9676660895347595,0.8748590350151062,0.8443793058395386
032713,0.959228515625,0.9597342610359192,0.7631344795227051,0.6933596730232239
032714,0.951171875,0.952709972858429,0.694340705871582,0.5821504592895508
032717,0.9668782353401184,0.9673233032226562,0.892719030380249,0.7785123586654663
032720,0.571533203125,0.5762009024620056,0.7592076063156128,0.7746661305427551
032721,0.946533203125,0.9525776505470276,0.6577322483062744,0.8038700222969055
032722,0.0,0.19631369411945343,0.0,0.33111414313316345
032723,0.951904296875,0.9599834084510803,0.6230928897857666,0.8497083783149719
032724,0.966796875,0.967315137386322,0.8748388290405273,0.8592668771743774
032725,0.946533203125,0.9565874338150024,0.6577322483062744,0.8485055565834045
032726,0.967041015625,0.9677913188934326,0.8122885227203369,0.9521077275276184
032727,0.962158203125,0.9625415205955505,0.8420895934104919,0.8938648104667664
032728,0.9668782353401184,0.9674680829048157,0.892719030380249,0.9353694319725037
032729,0.967041015625,0.9675569534301758,0.9284793138504028,0.9449652433395386
032730,0.9444172978401184,0.9560588598251343,0.544137716293335,0.8418876528739929
032731,0.9507649540901184,0.9552764296531677,0.6379934549331665,0.7481386065483093
032733,0.300537109375,0.3634784519672394,0.4636814594268799,0.6725371479988098
032735,0.947998046875,0.9537014961242676,0.5985158681869507,0.7884435057640076
032736,0.9668782353401184,0.9674201607704163,0.892719030380249,0.8270274996757507
032737,0.520263671875,0.5207973122596741,0.6423966884613037,0.6148546934127808
032738,0.44921875,0.539233922958374,0.2682024836540222,0.5819432735443115
032740,0.943359375,0.949856698513031,0.6040917634963989,0.6222068071365356
032741,0.957763671875,0.9581450819969177,0.8271697163581848,0.7886853814125061
032743,0.959228515625,0.9598061442375183,0.7631344795227051,0.8986591100692749
032744,0.48828125,0.4888981282711029,0.5307213068008423,0.5309513211250305
032745,0.9668782353401184,0.9673946499824524,0.7810032963752747,0.7257958054542542
032748,0.520263671875,0.5210646390914917,0.5620065331459045,0.7621129751205444
032749,0.953369140625,0.9577774405479431,0.6543781161308289,0.6070526242256165
032751,0.953369140625,0.9585806131362915,0.6543781161308289,0.754575252532959
032752,0.966796875,0.967046320438385,0.8748388290405273,0.8317873477935791
032754,0.959228515625,0.9597887396812439,0.7631344795227051,0.8679031729698181
032758,0.943359375,0.952062726020813,0.6040917634963989,0.7697559595108032
032759,0.962158203125,0.9626389145851135,0.8420895934104919,0.9273504614830017
032760,0.25390625,0.3370005786418915,0.25817668437957764,0.5032515525817871
032761,0.9668782353401184,0.967572033405304,0.7810032963752747,0.8524491786956787
032762,0.9444172978401184,0.9559358358383179,0.6219719052314758,0.8025500774383545
032763,0.967041015625,0.9676052331924438,0.9284793138504028,0.8606216311454773
032766,0.946533203125,0.9565096497535706,0.575423002243042,0.7078962326049805
032767,0.953369140625,0.9588762521743774,0.6543781161308289,0.6934155225753784
032768,0.584228515625,0.5845840573310852,0.6245770454406738,0.6012445688247681
032769,0.9375,0.945068359375,0.4692787230014801,0.4699474275112152
032770,0.967041015625,0.9677975177764893,0.8122885227203369,0.7947565913200378
032772,0.967041015625,0.9674102067947388,0.8122885227203369,0.816400945186615
032773,0.947998046875,0.952716588973999,0.6841284036636353,0.6965870261192322
032774,0.1875,0.38394296169281006,0.09385573863983154,0.34847238659858704
032775,0.9673665165901184,0.9676405191421509,0.8748590350151062,0.6921409964561462
032778,0.939453125,0.949043869972229,0.489017516374588,0.5145636796951294
032782,0.197998046875,0.23324552178382874,0.6871474981307983,0.7068051695823669
032784,0.712158203125,0.7126942873001099,0.7497180104255676,0.8720415830612183
032785,0.968017578125,0.9680525660514832,1.0,0.9080668687820435
032786,0.633056640625,0.6382023692131042,0.5862115621566772,0.7105409502983093
032788,0.499755859375,0.5859715342521667,0.4098700284957886,0.7418029308319092
032790,0.23828125,0.39822307229042053,0.16092148423194885,0.44366157054901123
032791,0.9673665165901184,0.9676439166069031,0.8748590350151062,0.6736003756523132
032793,0.9668782353401184,0.9674940705299377,0.7810032963752747,0.8185686469078064
032797,0.967041015625,0.9674969911575317,0.8122885227203369,0.76948481798172
032798,0.365234375,0.43014973402023315,0.3236317038536072,0.5074838995933533
032801,0.619873046875,0.6265599727630615,0.5410870313644409,0.6917296051979065
032802,0.5757649540901184,0.57982337474823,0.5708760023117065,0.6272870898246765
032803,0.9673665165901184,0.9678290486335754,0.8748590350151062,0.9368769526481628
032806,0.951904296875,0.9590215682983398,0.7122209072113037,0.7469940185546875
032807,0.966796875,0.9675473570823669,0.7653606534004211,0.7313193678855896
032808,0.633056640625,0.6399083733558655,0.5862115621566772,0.7227346897125244
032810,0.9507649540901184,0.9565468430519104,0.6379934549331665,0.701153576374054
032811,0.953369140625,0.9569551944732666,0.7479812502861023,0.6736844778060913
032812,0.959228515625,0.9599972367286682,0.7631344795227051,0.8053533434867859
032815,0.3059895932674408,0.3945426940917969,0.2836383283138275,0.5974253416061401
032816,0.712158203125,0.7126370668411255,0.7497180104255676,0.7711902260780334
032817,0.1875,0.2349294275045395,0.20111946761608124,0.30628037452697754
032818,0.9673665165901184,0.9677475690841675,0.8748590350151062,0.9029932618141174
032819,0.946533203125,0.9497100114822388,0.8793432712554932,0.8313648700714111
032820,0.946533203125,0.9537736177444458,0.8026000261306763,0.9209679365158081
032822,0.9673665165901184,0.9677717089653015,1.0,0.9769048690795898
032823,0.9673665165901184,0.9675102233886719,1.0,0.8031762838363647
032825,0.95703125,0.9575734734535217,0.7039180397987366,0.7175487875938416
032826,0.110107421875,0.28878843784332275,0.09298666566610336,0.48077213764190674
032827,0.9673665165901184,0.9677278995513916,0.8748590350151062,0.8873254656791687
032829,0.580322265625,0.6095177531242371,0.5636333227157593,0.5357732772827148
032830,0.962158203125,0.9626822471618652,0.8420895934104919,0.7349746823310852
032831,0.9507649540901184,0.9562738537788391,0.6379934549331665,0.8531804084777832
032832,0.488037109375,0.5733957290649414,0.4365417957305908,0.7181000709533691
032833,0.9673665165901184,0.9676721096038818,1.0,0.8642096519470215
032834,0.633056640625,0.6373816728591919,0.715326726436615,0.7062899470329285
032836,0.943359375,0.9544545412063599,0.5284951329231262,0.7018007040023804
032844,0.962158203125,0.9625129699707031,0.8420895934104919,0.8162501454353333
032845,0.967041015625,0.9676212668418884,0.9284793138504028,0.9207730293273926
032846,0.706298828125,0.7097375392913818,0.7139173746109009,0.7595751285552979
032847,0.953369140625,0.9591984152793884,0.6543781161308289,0.7370532155036926
032848,0.706298828125,0.7103666067123413,0.7139173746109009,0.8412274122238159
032850,0.712158203125,0.7125906944274902,0.7497180104255676,0.7979059815406799
032851,0.393798828125,0.43606388568878174,0.38908666372299194,0.4793797433376312
032858,0.9673665165901184,0.9677200317382812,0.8748590350151062,0.7482495307922363
032859,0.46875,0.48386532068252563,0.29608190059661865,0.5226941108703613
032861,0.959228515625,0.9598345160484314,0.7631344795227051,0.8049536347389221
032863,0.962158203125,0.9623345136642456,0.9625431895256042,0.9319636225700378
032864,0.9673665165901184,0.9678156971931458,0.8748590350151062,0.9248803853988647
032866,0.946533203125,0.946533203125,1.0,0.9343641400337219
032868,0.966796875,0.9672976136207581,0.8748388290405273,0.8666396141052246
032869,0.968017578125,0.9680539965629578,1.0,0.899597704410553
032872,0.962158203125,0.9626058340072632,0.8420895934104919,0.8568617701530457
032874,0.706298828125,0.7102757096290588,0.7139173746109009,0.7683036923408508
032875,0.571533203125,0.5786988735198975,0.49935534596443176,0.6025582551956177
032876,0.968017578125,0.9680758118629456,1.0,0.9523787498474121
032877,0.3599446713924408,0.4283974766731262,0.36623337864875793,0.6202056407928467
032879,0.580322265625,0.6265864372253418,0.4618985950946808,0.5959764122962952
032880,0.956298828125,0.9599940180778503,0.7169486284255981,0.8499933481216431
032882,0.962158203125,0.9624736309051514,0.9625431895256042,0.8885213732719421
032883,0.659423828125,0.6631959676742554,0.5918076038360596,0.6782802939414978
032884,0.9375,0.9414364099502563,0.4692787230014801,0.40013107657432556
032885,0.968017578125,0.9680585861206055,1.0,0.8070070147514343
032886,0.9668782353401184,0.9676256775856018,0.7810032963752747,0.8778765201568604
032887,0.571533203125,0.5816621780395508,0.43686550855636597,0.7619226574897766
032888,0.967041015625,0.9674403071403503,0.9284793138504028,0.7901707291603088
032890,0.21875,0.32600319385528564,0.15793579816818237,0.4962679445743561
032891,0.9466145634651184,0.9533641338348389,0.5787770748138428,0.6130473017692566
032896,0.568359375,0.5755488872528076,0.5438850522041321,0.5773463845252991
032897,0.956298828125,0.9610532522201538,0.8195018768310547,0.9503783583641052
032898,0.431884765625,0.47327765822410583,0.390377938747406,0.6405661106109619
032899,0.968017578125,0.9680448770523071,1.0,0.8543090224266052
032900,0.962158203125,0.9625263810157776,0.8420895934104919,0.7840685844421387
032901,0.95703125,0.9574483036994934,0.7039180397987366,0.6190686225891113
032903,0.956298828125,0.9596222043037415,0.8195018768310547,0.7757542133331299
032904,0.9507649540901184,0.9576228260993958,0.7292529344558716,0.9014399647712708
032905,0.946533203125,0.9543023705482483,0.575423002243042,0.7028612494468689
032906,0.956298828125,0.9596843123435974,1.0,0.9909790754318237
032907,0.962158203125,0.9623539447784424,0.9625431895256042,0.8397735953330994
032910,0.9673665165901184,0.9677173495292664,1.0,0.9679476618766785
032911,0.0,0.0,0.0,0.0
032914,0.584228515625,0.5846558213233948,0.6245770454406738,0.5828720331192017
032915,0.953369140625,0.959105372428894,0.6543781161308289,0.8248842358589172
032917,0.962158203125,0.9626907110214233,0.8420895934104919,0.9207417964935303
032920,0.701904296875,0.7081254124641418,0.6066363453865051,0.6630113124847412
032922,0.943359375,0.9516403079032898,0.6040917634963989,0.6433295011520386
032925,0.9507649540901184,0.9552773237228394,0.7292529344558716,0.7502041459083557
032926,0.518798828125,0.6092513203620911,0.3251410126686096,0.561253011226654
032927,0.953369140625,0.960317850112915,0.6543781161308289,0.7462082505226135
032929,0.166259765625,0.2201625555753708,0.5307213068008423,0.7955906391143799
032933,0.510498046875,0.5185316801071167,0.43686550855636597,0.6744500398635864
032934,0.94140625,0.9508547186851501,0.5900454521179199,0.6979964375495911
032935,0.9507649540901184,0.9544858336448669,0.7292529344558716,0.6631007790565491
032938,0.260498046875,0.40944644808769226,0.18348374962806702,0.3697647750377655
032939,0.946533203125,0.9546068906784058,0.6577322483062744,0.8812899589538574
032942,0.9375,0.9375,0.8879528045654297,0.8879528045654297
032943,0.968017578125,0.9680667519569397,1.0,0.9380242228507996
032944,0.531982421875,0.5823464393615723,0.48571667075157166,0.7156441807746887
032947,0.966796875,0.9671433568000793,0.8748388290405273,0.9631684422492981
032949,0.946533203125,0.9541047811508179,0.6577322483062744,0.7971590757369995
032950,0.9673665165901184,0.9676902294158936,1.0,0.8398895859718323
032952,0.263671875,0.2774251401424408,0.7653606534004211,0.7541985511779785
032954,0.967041015625,0.9675555229187012,0.9284793138504028,0.884077250957489
032956,0.956298828125,0.9579697847366333,1.0,0.9201866984367371
032958,0.9673665165901184,0.9677219986915588,1.0,0.9749541282653809
032959,0.943359375,0.9557445049285889,0.5284951329231262,0.7233604788780212
032960,0.968017578125,0.9680609703063965,1.0,0.8918506503105164
032961,0.560546875,0.5993792414665222,0.7653606534004211,0.8734166026115417
032964,0.300537109375,0.3562734127044678,0.5354781746864319,0.6605708599090576
032965,0.08984375,0.08984375,0.3951442539691925,0.3951442539691925
032966,0.39453125,0.40282249450683594,0.37281090021133423,0.44019290804862976
032968,0.940673828125,0.9462286233901978,0.5046601295471191,0.42108121514320374
032969,0.956298828125,0.9601475596427917,0.8195018768310547,0.8803076148033142
032971,0.4778645932674408,0.48547765612602234,0.4635950028896332,0.6240261197090149
032972,0.556884765625,0.5872335433959961,0.5407800078392029,0.5963501930236816
032973,0.531982421875,0.5570902824401855,0.7462155222892761,0.6326311230659485
032974,0.556884765625,0.6040064692497253,0.5407800078392029,0.7053333520889282
032975,0.968017578125,0.9680617451667786,1.0,0.9664040803909302
032977,0.953369140625,0.9603206515312195,0.6543781161308289,0.9012000560760498
032978,0.633056640625,0.6371588110923767,0.5862115621566772,0.5940738916397095
032980,0.263671875,0.27622172236442566,0.90728360414505,0.9583076238632202
032982,0.967041015625,0.9674283862113953,0.8122885227203369,0.692871630191803
032983,0.9673665165901184,0.9678866863250732,0.8748590350151062,0.7655141353607178
032984,0.959228515625,0.9598168730735779,0.7631344795227051,0.6539700031280518
032985,0.9375,0.9399169683456421,0.4692787230014801,0.361644983291626
032986,0.0,0.015625,0.0,0.07986155897378922
032987,0.962158203125,0.9626039266586304,0.8420895934104919,0.8815931677818298
032989,0.967041015625,0.9675992727279663,0.8122885227203369,0.9079493284225464
032990,0.957763671875,0.9584634304046631,0.7236568927764893,0.8056048154830933
032993,0.956298828125,0.9589622616767883,1.0,0.9284132719039917
032994,0.9673665165901184,0.9678983092308044,0.8748590350151062,0.9116319417953491
032996,0.95703125,0.957729160785675,0.8046074509620667,0.8205601572990417
032997,0.9668782353401184,0.9677800536155701,0.7810032963752747,0.8216779232025146
033000,0.9507649540901184,0.9548165202140808,0.7292529344558716,0.8071759343147278
033004,0.953369140625,0.9593421220779419,0.7479812502861023,0.8972460627555847
033005,0.9673665165901184,0.9676145315170288,0.8748590350151062,0.7249805927276611
033006,0.706298828125,0.7111363410949707,0.6245770454406738,0.8445915579795837
033007,0.393798828125,0.46828705072402954,0.31885725259780884,0.5729978680610657
033012,0.584228515625,0.5846524238586426,0.7139173746109009,0.723131000995636
033014,0.518798828125,0.5573021769523621,0.6967307925224304,0.764797568321228
033016,0.499755859375,0.5554226636886597,0.629690945148468,0.7898390889167786
033018,0.712158203125,0.7124005556106567,0.8569586873054504,0.8262413740158081
033019,0.9673665165901184,0.9677525162696838,0.8748590350151062,0.8015680909156799
033020,0.953369140625,0.9575291872024536,0.912726640701294,0.9601967930793762
033021,0.95703125,0.9574996829032898,0.8046074509620667,0.7258468866348267
033022,0.556884765625,0.6012295484542847,0.8308104276657104,0.9390107989311218
033024,0.706298828125,0.7111732959747314,0.6245770454406738,0.7754094004631042
033027,0.703369140625,0.7066357135772705,0.5620065331459045,0.5469977855682373
033029,0.703369140625,0.7066930532455444,0.6423966884613037,0.6227573752403259
033032,0.0,0.18248778581619263,0.0,0.2944425344467163
033033,0.956298828125,0.9585252404212952,1.0,0.9100182056427002
033036,0.968017578125,0.9680648446083069,1.0,0.9588479399681091
033038,0.16796875,0.2408931404352188,0.18026001751422882,0.37340983748435974
033039,0.701904296875,0.7063679099082947,0.7402501106262207,0.7066928744316101
033041,0.962158203125,0.9625336527824402,0.8420895934104919,0.8984231352806091
033043,0.365234375,0.43928855657577515,0.23202729225158691,0.39901843667030334
033044,0.956298828125,0.9596728086471558,0.8195018768310547,0.806620717048645
033046,0.374755859375,0.437901109457016,0.28309693932533264,0.39531925320625305
033047,0.304931640625,0.3801501393318176,0.22860826551914215,0.3367873430252075
033051,0.968017578125,0.968061089515686,1.0,0.9631480574607849
033053,0.95703125,0.9574142694473267,0.8046074509620667,0.8473461270332336
033054,0.304931640625,0.3974951207637787,0.22860826551914215,0.5239130854606628
033055,0.946533203125,0.953666627407074,0.6577322483062744,0.7391766309738159
033059,0.556884765625,0.5951811075210571,0.5407800078392029,0.6300961375236511
033060,0.943359375,0.9531769156455994,0.6040917634963989,0.6709761619567871
033062,0.568359375,0.5765763521194458,0.5438850522041321,0.723721981048584
033063,0.957763671875,0.9584077000617981,0.7236568927764893,0.7377427816390991
033065,0.956298828125,0.9576681852340698,1.0,0.7687216997146606
033067,0.659423828125,0.6632585525512695,0.5918076038360596,0.6118706464767456
033069,0.499755859375,0.5817670822143555,0.4490610957145691,0.6808353662490845
033070,0.966796875,0.96722412109375,0.8748388290405273,0.7495378255844116
033073,0.508056640625,0.5135783553123474,0.5334192514419556,0.6462084650993347
033076,0.9673665165901184,0.9677790403366089,1.0,0.9707469344139099
033077,0.951171875,0.95603346824646,0.8472716808319092,0.7888610363006592
033080,0.701904296875,0.7086253762245178,0.5307213068008423,0.649865984916687
033086,0.962158203125,0.962565541267395,0.9625431895256042,0.9048554301261902
033089,0.968017578125,0.9680583477020264,1.0,0.8047840595245361
033090,0.260498046875,0.41156670451164246,0.16052241623401642,0.4648163616657257
033091,0.659423828125,0.6642465591430664,0.5918076038360596,0.7723314762115479
033092,0.951904296875,0.9570828080177307,0.7122209072113037,0.72801274061203
033093,0.3125,0.3159586489200592,0.2682024836540222,0.22929759323596954
033097,0.48828125,0.48875027894973755,0.5307213068008423,0.5416094064712524
033098,0.9507649540901184,0.9557740092277527,0.7292529344558716,0.7522708177566528
033103,0.956298828125,0.9583665132522583,0.7169486284255981,0.6315047144889832
033105,0.520263671875,0.5209354758262634,0.5620065331459045,0.545735239982605
033107,0.432373046875,0.43767738342285156,0.4618985950946808,0.5654446482658386
033108,0.953369140625,0.9585250020027161,0.6543781161308289,0.6466098427772522
033110,0.706298828125,0.7102739810943604,0.6245770454406738,0.7902256846427917
033113,0.499755859375,0.5530753135681152,0.4098700284957886,0.45606595277786255
033114,0.962158203125,0.9625416994094849,0.8420895934104919,0.8681343197822571
033115,0.263671875,0.40933239459991455,0.15307211875915527,0.5387080311775208
033116,0.47265625,0.5833913087844849,0.3039627969264984,0.5558542609214783
033117,0.968017578125,0.9680444002151489,1.0,0.8842172622680664
033118,0.946533203125,0.956703245639801,0.575423002243042,0.8732227683067322
033119,0.2774251401424408,0.35129305720329285,0.23532335460186005,0.295769065618515
033120,0.2122395932674408,0.254363089799881,0.19284793734550476,0.2617454528808594
033122,0.701904296875,0.705621063709259,0.5307213068008423,0.5186644196510315
033123,0.1875,0.34061935544013977,0.1309099942445755,0.4573567807674408
033124,0.968017578125,0.9680777788162231,1.0,0.9635053873062134
033128,0.712158203125,0.7123954892158508,0.8569586873054504,0.7466027140617371
033129,0.953369140625,0.9603376388549805,0.6543781161308289,0.7178718447685242
033132,0.9466145634651184,0.9549988508224487,0.5787770748138428,0.6087678074836731
033133,0.520263671875,0.5210237503051758,0.5620065331459045,0.7321591377258301
033138,0.943115234375,0.9519843459129333,0.5359453558921814,0.7303315997123718
033139,0.508056640625,0.5135861039161682,0.5334192514419556,0.6814910769462585
033141,0.16796875,0.266845703125,0.14772342145442963,0.27539557218551636
033143,0.962158203125,0.962452232837677,0.8420895934104919,0.7893674373626709
033146,0.962158203125,0.9623270034790039,0.9625431895256042,0.9472495317459106
033147,0.490234375,0.5574216842651367,0.38805168867111206,0.5617780089378357
033148,0.606689453125,0.6496140956878662,0.46666663885116577,0.5876824855804443
033149,0.46875,0.4839004576206207,0.3384338617324829,0.5966973304748535
033150,0.962158203125,0.9623916149139404,0.9625431895256042,0.8159853219985962
033151,0.947998046875,0.9561197757720947,0.5985158681869507,0.842100977897644
033155,0.34765625,0.36018043756484985,0.293855756521225,0.5725370645523071
033157,0.508056640625,0.5121790170669556,0.5334192514419556,0.673958957195282
033158,0.4375,0.5745630264282227,0.2503223121166229,0.6751216053962708
033160,0.633056640625,0.6379836797714233,0.5862115621566772,0.7582579255104065
033161,0.951904296875,0.9573832750320435,0.7122209072113037,0.7054744958877563
033163,0.9673665165901184,0.9679080247879028,0.8748590350151062,0.9337130784988403
033164,0.943115234375,0.9499920010566711,0.7475366592407227,0.8653008937835693
033165,0.571533203125,0.581398606300354,0.43686550855636597,0.5952974557876587
033167,0.304931640625,0.4231935441493988,0.20000000298023224,0.5126625895500183
033168,0.9507649540901184,0.9554893374443054,0.8898733854293823,0.897270143032074
033171,0.584228515625,0.5847341418266296,0.6245770454406738,0.5807770490646362
033172,0.701904296875,0.7068424820899963,0.7402501106262207,0.8649542331695557
033173,0.304931640625,0.304931640625,1.0,1.0
033174,0.5757649540901184,0.5815609693527222,0.49943602085113525,0.5457360744476318
033177,0.619873046875,0.6279383897781372,0.4733748733997345,0.7353336215019226
033178,0.571533203125,0.5769163370132446,0.49935534596443176,0.5761204361915588
033179,0.510498046875,0.515403687953949,0.6093400716781616,0.6512942314147949
033180,0.701171875,0.7075302600860596,0.5150786638259888,0.5602455735206604
033181,0.1875,0.23498238623142242,0.16310739517211914,0.27439987659454346
033185,0.939453125,0.942657470703125,0.7848228216171265,0.8767396211624146
033186,0.94140625,0.9459397196769714,0.5900454521179199,0.6114763021469116
033187,0.44140625,0.4475821852684021,0.501995861530304,0.6505818963050842
033188,0.568359375,0.5711081624031067,0.5958904027938843,0.5856237411499023
033190,0.9668782353401184,0.9671457409858704,0.7810032963752747,0.6019142866134644
033191,0.503173828125,0.5165462493896484,0.3430097699165344,0.6068958640098572
033192,0.490234375,0.577789306640625,0.3180091083049774,0.5740220546722412
033194,0.9507649540901184,0.9561856985092163,0.6379934549331665,0.7896690964698792
033195,0.953369140625,0.9586770534515381,0.6543781161308289,0.8636428117752075
033198,0.967041015625,0.9676583409309387,0.8122885227203369,0.9483056664466858
033200,0.47265625,0.5172882080078125,0.3039627969264984,0.32244229316711426
033201,0.712158203125,0.7124651670455933,0.7497180104255676,0.7410718202590942
033203,0.943359375,0.9494003653526306,0.7371450066566467,0.795051634311676
033204,0.951171875,0.9564566016197205,0.8472716808319092,0.9163877964019775
033207,0.951904296875,0.958627462387085,0.6230928897857666,0.654914379119873
033208,0.9466145634651184,0.9520717859268188,0.6615661382675171,0.7116221785545349
033209,0.2774251401424408,0.42692598700523376,0.1687147468328476,0.3849900960922241
033212,0.9375,0.9397532343864441,0.7171369194984436,0.6291837096214294
033215,0.30078125,0.37801939249038696,0.24766992032527924,0.5748175382614136
033216,0.946533203125,0.9543256163597107,0.6577322483062744,0.8508691191673279
033217,0.261474609375,0.3303850591182709,0.20000000298023224,0.34959742426872253
033218,0.1875,0.30673789978027344,0.10728099197149277,0.27595776319503784
033219,0.946533203125,0.9500941634178162,0.8026000261306763,0.740825355052948
033220,0.701171875,0.7073345184326172,0.5150786638259888,0.5033673048019409
033221,0.966796875,0.9671192765235901,0.8748388290405273,0.8276003003120422
033222,0.659423828125,0.6626080274581909,0.5918076038360596,0.6304203867912292
033226,0.499755859375,0.6052162647247314,0.293855756521225,0.4866655468940735
033230,0.9673665165901184,0.9676912426948547,1.0,0.9424534440040588
033234,0.940673828125,0.9497336745262146,0.5768473744392395,0.8010807037353516
033235,0.23828125,0.2630371153354645,0.7039180994033813,0.7365897297859192
033236,0.568359375,0.5782527923583984,0.3899376392364502,0.4669141471385956
033241,0.701171875,0.7020154595375061,0.7184317708015442,0.7258756756782532
033244,0.30078125,0.35615813732147217,0.3454500138759613,0.5460110902786255
033246,0.967041015625,0.9675042033195496,0.9284793138504028,0.9139853119850159
033248,0.951904296875,0.9575310349464417,0.6230928897857666,0.7080856561660767
033249,0.9444172978401184,0.9453099370002747,0.7589633464813232,0.6579419374465942
033250,0.9668782353401184,0.9676235914230347,0.7810032963752747,0.9340570569038391
033253,0.432373046875,0.43778562545776367,0.5636333227157593,0.6304298639297485
033254,0.968017578125,0.9680240750312805,1.0,0.9087289571762085
033256,0.966796875,0.9677518606185913,0.7653606534004211,0.8908596038818359
033257,0.518798828125,0.5420074462890625,0.3716495931148529,0.3439241945743561
033258,0.940673828125,0.9539000391960144,0.5768473744392395,0.7692909836769104
033261,0.584228515625,0.5846614837646484,0.6245770454406738,0.5962311625480652
033262,0.94140625,0.9456710815429688,0.7200049757957458,0.6460499167442322
033263,0.278564453125,0.35099607706069946,0.21157628297805786,0.3490143120288849
033264,0.957763671875,0.9586433172225952,0.7236568927764893,0.7818207740783691
033265,0.9507649540901184,0.9557310938835144,0.7292529344558716,0.7642459869384766
033267,0.47265625,0.4767368733882904,0.904949426651001,0.899207353591919
033268,0.701904296875,0.7034492492675781,0.7402501106262207,0.5557987093925476
033270,0.633056640625,0.6343955993652344,0.7837249636650085,0.7963072061538696
033271,0.9466145634651184,0.9538782238960266,0.5787770748138428,0.7938849925994873
033273,0.61328125,0.6217514276504517,0.5185247659683228,0.6689907908439636
033275,0.9444172978401184,0.9519626498222351,0.544137716293335,0.6279245615005493
033276,0.46875,0.4728369414806366,0.3645033836364746,0.4363572597503662
033277,0.95703125,0.9575271606445312,0.8046074509620667,0.7851736545562744
033278,0.32421875,0.3356374204158783,0.25437816977500916,0.4266999065876007
033280,0.567138671875,0.6164246797561646,0.4261382520198822,0.5509540438652039
033281,0.968017578125,0.9680201411247253,1.0,0.9977012872695923
033282,0.48828125,0.489016056060791,0.5307213068008423,0.7200584411621094
033283,0.967041015625,0.9674699902534485,0.9284793138504028,0.8785074949264526
033285,0.450927734375,0.45964252948760986,0.39804574847221375,0.49283552169799805
033287,0.94140625,0.9498780369758606,0.5162065625190735,0.6756424307823181
033290,0.659423828125,0.6632049679756165,0.6764605641365051,0.8166388273239136
033291,0.943359375,0.951172411441803,0.7371450066566467,0.81243896484375
033293,0.499755859375,0.5859054923057556,0.293855756521225,0.7053742408752441
033294,0.947998046875,0.9539712071418762,0.5985158681869507,0.6861550211906433
033295,0.5757649540901184,0.580572783946991,0.49943602085113525,0.6448899507522583
033296,0.518798828125,0.5508311986923218,1.0,0.9592917561531067
033298,0.166259765625,0.20066356658935547,0.5307213068008423,0.7440033555030823
033299,0.959228515625,0.9596782326698303,0.7631344795227051,0.7004173994064331
033300,0.518798828125,0.5308405756950378,1.0,0.9686990976333618
033303,0.633056640625,0.6399818658828735,0.5128524899482727,0.7424695491790771
033304,0.47265625,0.4850105941295624,0.3920743465423584,0.6490304470062256
033306,0.25390625,0.33132272958755493,0.18509942293167114,0.3691158592700958
033308,0.712158203125,0.7126059532165527,0.7497180104255676,0.8090559244155884
033310,0.9673665165901184,0.9674555063247681,1.0,0.8863287568092346
033311,0.968017578125,0.9680637121200562,1.0,0.9263350963592529
033312,0.3599446713924408,0.37596505880355835,0.36623337864875793,0.36809825897216797
033314,0.9375,0.9375,0.7531440854072571,0.7531440854072571
033315,0.9444172978401184,0.9525927901268005,0.6219719052314758,0.8060163855552673
033316,0.966796875,0.966796875,0.8748388290405273,0.7086207866668701
033317,0.323974609375,0.4280971884727478,0.2550044059753418,0.6428278684616089
033319,0.14453125,0.23233948647975922,0.22745199501514435,0.37350237369537354
033321,0.968017578125,0.9680535197257996,1.0,0.8114441633224487
033323,0.518798828125,0.6061283349990845,0.496870219707489,0.7156379818916321
033324,0.490234375,0.5721453428268433,0.3180091083049774,0.47162482142448425
033325,0.365234375,0.365234375,0.789595901966095,0.789595901966095
033326,0.1458333432674408,0.1458333432674408,0.15272833406925201,0.11281842738389969
033328,0.499755859375,0.5464485883712769,0.7271926999092102,0.900728702545166
033330,0.940673828125,0.9517526626586914,0.5046601295471191,0.6829665303230286
033332,0.951171875,0.9570168852806091,0.8472716808319092,0.954054594039917
033333,0.703369140625,0.7081621885299683,0.5620065331459045,0.6445343494415283
033334,0.25390625,0.25390625,0.45805788040161133,0.45805788040161133
033335,0.659423828125,0.6613612771034241,0.8254533410072327,0.848701000213623
033336,0.9673665165901184,0.9677892327308655,0.8748590350151062,0.9643779993057251
033337,0.0,0.1957346647977829,0.0,0.4184175729751587
033339,0.951171875,0.959746778011322,0.6074502468109131,0.7061759233474731
033340,0.0,0.08059002459049225,0.0,0.2696749269962311
033342,0.9673665165901184,0.967703104019165,0.8748590350151062,0.8005461692810059
033344,0.9375,0.9375,0.5364049673080444,0.4158495366573334
033346,0.706298828125,0.706298828125,0.871160089969635,0.871160089969635
033348,0.263671875,0.37068939208984375,0.2660166919231415,0.5666635632514954
033349,0.469970703125,0.47547924518585205,0.4431702494621277,0.5870816111564636
033350,0.5694172978401184,0.5787782669067383,0.4635950028896332,0.7305135726928711
033351,0.959228515625,0.9596247673034668,0.8722942471504211,0.915054976940155
033352,0.1458333432674408,0.16692709922790527,0.3935772776603699,0.5240828394889832
033353,0.3599446713924408,0.43147435784339905,0.36623337864875793,0.6573426723480225
033354,0.959228515625,0.9596186876296997,0.7631344795227051,0.8749879598617554
033356,0.9673665165901184,0.9676415920257568,0.8748590350151062,0.6988376975059509
033357,0.0,0.215576171875,0.0,0.274165540933609
033358,0.94140625,0.951387882232666,0.5162065625190735,0.5798553228378296
033359,0.9673665165901184,0.9678996801376343,0.8748590350151062,0.8029520511627197
033361,0.46875,0.4815208613872528,0.29608190059661865,0.5331012606620789
033368,0.47265625,0.5378211736679077,0.5698384642601013,0.581135094165802
033370,0.0,0.14881911873817444,0.0,0.3802003562450409
033374,0.51953125,0.5591247081756592,0.45818498730659485,0.5173961520195007
033375,0.9388020634651184,0.9486022591590881,0.5542851090431213,0.597282886505127
033377,0.9673665165901184,0.9678932428359985,0.8748590350151062,0.8144754767417908
033382,0.956298828125,0.9577625393867493,1.0,0.8072555661201477
033383,0.701171875,0.701171875,0.7871269583702087,0.7286418676376343
033384,0.9673665165901184,0.9676399827003479,1.0,0.9840973019599915
033385,0.946533203125,0.9520894289016724,0.8026000261306763,0.7788323163986206
033388,0.261474609375,0.36472243070602417,0.20000000298023224,0.4013504087924957
033389,0.21875,0.2921386659145355,0.3419274091720581,0.6651800274848938
033391,0.956298828125,0.9564533233642578,1.0,0.9950652718544006
033392,0.9673665165901184,0.9677125215530396,0.8748590350151062,0.9247332811355591
033393,0.9673665165901184,0.967790424823761,0.8748590350151062,0.9464983940124512
033394,0.956298828125,0.9588359594345093,1.0,0.9244251251220703
033396,0.510498046875,0.5160043239593506,0.49935534596443176,0.6374252438545227
033397,0.9673665165901184,0.9677653312683105,0.8748590350151062,0.8852719068527222
033398,0.61328125,0.6199523210525513,0.4536360800266266,0.4534738063812256
033399,0.388427734375,0.3972727954387665,0.3251410126686096,0.5945992469787598
033400,0.94140625,0.9485369324684143,0.5162065625190735,0.4919053614139557
033404,0.48828125,0.48853033781051636,0.6066363453865051,0.6598240733146667
033405,0.197998046875,0.34952834248542786,0.13742950558662415,0.5403956770896912
033407,0.5757649540901184,0.5827794671058655,0.49943602085113525,0.7366633415222168
033410,0.260498046875,0.40798458456993103,0.19761748611927032,0.4540911912918091
033412,0.9673665165901184,0.9677303433418274,0.8748590350151062,0.90162593126297
033413,0.455078125,0.560271680355072,0.23873552680015564,0.4210110306739807
033414,0.21875,0.276569664478302,0.19272169470787048,0.25565555691719055
033415,0.08984375,0.27369827032089233,0.09298666566610336,0.4254010319709778
033416,0.943359375,0.955613911151886,0.5284951329231262,0.6463243961334229
033417,0.4375,0.4945695996284485,0.5419421792030334,0.751731812953949
033420,0.3125,0.32533207535743713,0.23463936150074005,0.5740950703620911
033421,0.968017578125,0.9680527448654175,1.0,0.8396738171577454
033422,0.5694172978401184,0.5780867338180542,0.4635950028896332,0.6027617454528809
033424,0.9466145634651184,0.9551454782485962,0.6615661382675171,0.8909088373184204
033425,0.374755859375,0.438728392124176,0.28309693932533264,0.39897486567497253
033426,0.9673665165901184,0.9676418900489807,1.0,0.8939459919929504
033427,0.9673665165901184,0.9677255749702454,0.8748590350151062,0.8883680701255798
033429,0.304931640625,0.39731037616729736,0.20000000298023224,0.41827428340911865
033430,0.703369140625,0.7089251279830933,0.6423966884613037,0.7314779758453369
033435,0.580322265625,0.6147669553756714,0.5636333227157593,0.5679458975791931
033436,0.571533203125,0.5816646218299866,0.43686550855636597,0.7869494557380676
033439,0.568359375,0.5803207159042358,0.3899376392364502,0.4066697955131531
033441,0.9375,0.94091796875,0.4692787230014801,0.38046011328697205
033442,0.968017578125,0.9680767059326172,1.0,0.9275500178337097
033443,0.9673665165901184,0.9678979516029358,0.8748590350151062,0.8328788876533508
033444,0.966796875,0.9673187136650085,0.8748388290405273,0.8723110556602478
033445,0.323974609375,0.40833184123039246,0.2550044059753418,0.6367575526237488
033447,0.9673665165901184,0.9676834940910339,0.8748590350151062,0.8138026595115662
033448,0.701171875,0.7037461400032043,0.5887562036514282,0.5029053688049316
033452,0.953369140625,0.9591861963272095,0.6543781161308289,0.7148171663284302
033454,0.4778645932674408,0.4795735776424408,0.5657033920288086,0.6455235481262207
033455,0.9444172978401184,0.9559701681137085,0.544137716293335,0.5745658278465271
033457,0.9673665165901184,0.9676064848899841,1.0,0.8425691723823547
033459,0.966796875,0.967041015625,0.8748388290405273,0.9582796096801758
033460,0.703369140625,0.7088068127632141,0.6423966884613037,0.8001857399940491
033463,0.9673665165901184,0.9677761197090149,0.8748590350151062,0.8237409591674805
033466,0.946533203125,0.9525722861289978,0.575423002243042,0.6417962908744812
033468,0.560546875,0.6030462980270386,0.4981783330440521,0.7155284881591797
033470,0.967041015625,0.967574417591095,0.8122885227203369,0.7329323291778564
033472,0.953369140625,0.9588249325752258,0.7479812502861023,0.8164287805557251
033474,0.939453125,0.945556640625,0.5589672327041626,0.7095139026641846
033475,0.47265625,0.5584242343902588,0.3709116578102112,0.5567120313644409
033476,0.947998046875,0.9543447494506836,0.5985158681869507,0.8482370376586914
033478,0.956298828125,0.9611229300498962,0.7169486284255981,0.8560768961906433
033480,0.712158203125,0.7125874757766724,0.7497180104255676,0.673630952835083
033481,0.1875,0.34574684500694275,0.09385573863983154,0.40178659558296204
033487,0.450927734375,0.46070098876953125,0.3482339084148407,0.591003954410553
033488,0.46875,0.4739013612270355,0.4524630308151245,0.5754286646842957
033489,0.9668782353401184,0.9677713513374329,0.7810032963752747,0.9425196647644043
033490,0.556884765625,0.6093148589134216,0.3877114951610565,0.5482683777809143
033491,0.4375,0.4990234375,0.21899673342704773,0.2154078483581543
033492,0.953369140625,0.9551353454589844,0.7479812502861023,0.6528685688972473
033495,0.951904296875,0.9586519598960876,0.7122209072113037,0.7954052686691284
033496,0.956298828125,0.9602065682411194,0.7169486284255981,0.8494163155555725
033497,0.47265625,0.5274738669395447,0.6580725908279419,0.7599821090698242
033498,0.08984375,0.2577904760837555,0.07620275020599365,0.5394052863121033
033500,0.4375,0.5350032448768616,0.21899673342704773,0.6305837035179138
033502,0.09375,0.223876953125,0.08259502053260803,0.31784263253211975
033503,0.957763671875,0.9585317969322205,0.7236568927764893,0.8544018864631653
033505,0.9388020634651184,0.9388020634651184,0.7782489061355591,0.7782489061355591
033506,0.12109375,0.2382119596004486,0.08940082788467407,0.24744310975074768
033508,0.3599446713924408,0.4474937319755554,0.40125197172164917,0.5985978841781616
033509,0.956298828125,0.9610687494277954,0.7169486284255981,0.7494612336158752
033510,0.703369140625,0.7049407362937927,0.5620065331459045,0.49069878458976746
033512,0.968017578125,0.9680768251419067,1.0,0.9348233342170715
033513,0.712158203125,0.7125244140625,0.7497180104255676,0.703848659992218
033514,0.606689453125,0.615727424621582,1.0,0.6913627982139587
033515,0.09375,0.289570152759552,0.05921638384461403,0.3279247581958771
033516,0.5694172978401184,0.5769974589347839,0.4055802822113037,0.45817503333091736
033517,0.9388020634651184,0.9415486454963684,0.8427215218544006,0.8920795321464539
033519,0.14453125,0.19831399619579315,0.1061442568898201,0.1356273889541626
033520,0.488037109375,0.5724250674247742,0.398443341255188,0.6171024441719055
033523,0.947998046875,0.9559342265129089,0.6841284036636353,0.742591381072998
033526,0.9466145634651184,0.9524038434028625,0.6615661382675171,0.7494522333145142
033527,0.5757649540901184,0.5820232033729553,0.5708760023117065,0.7884782552719116
033528,0.9673665165901184,0.9676507711410522,1.0,0.9208698868751526
033530,0.32421875,0.3383452892303467,0.2907647490501404,0.5510069131851196
033532,0.951171875,0.9559392929077148,0.8472716808319092,0.8668943643569946
033533,0.260498046875,0.2701683044433594,0.24530528485774994,0.20618237555027008
033534,0.300537109375,0.3899776339530945,0.24733662605285645,0.47908198833465576
033537,0.967041015625,0.9676274657249451,0.8122885227203369,0.8242946267127991
033538,0.9507649540901184,0.9565300941467285,0.7292529344558716,0.7732102870941162
033539,0.9668782353401184,0.9674638509750366,0.892719030380249,0.9156919717788696
033540,0.4778645932674408,0.4850323796272278,0.4055802822113037,0.5107890963554382
033541,0.2122395932674408,0.2836507260799408,0.1687147468328476,0.2527761459350586
033542,0.260498046875,0.260498046875,0.24530528485774994,0.22355437278747559
033543,0.47265625,0.48007506132125854,0.3920743465423584,0.47702690958976746
033544,0.508056640625,0.5133482217788696,0.46666663885116577,0.6645640730857849
033545,0.39453125,0.40221309661865234,0.37281090021133423,0.6203550696372986
033546,0.956298828125,0.9611325263977051,0.7169486284255981,0.729066014289856
033549,0.95703125,0.9575155377388,0.7039180397987366,0.660500168800354
033550,0.197998046875,0.197998046875,0.8145672082901001,0.8145672082901001
033552,0.488037109375,0.5929943323135376,0.2856633961200714,0.6303442716598511
033553,0.947998046875,0.9559791684150696,0.6841284036636353,0.7849079966545105
033555,0.957763671875,0.9583148956298828,0.8271697163581848,0.8006366491317749
033557,0.4375,0.4786701202392578,0.6735438704490662,0.8864656686782837
033558,0.091796875,0.124755859375,0.3948093354701996,0.6757529973983765
033560,0.712158203125,0.7124521136283875,0.8569586873054504,0.8139300346374512
033562,0.943359375,0.9448046088218689,0.6506248712539673,0.6558378338813782
033563,0.9507649540901184,0.9544917345046997,0.8898733854293823,0.872433066368103
033564,0.300537109375,0.4060668349266052,0.24733662605285645,0.636745810508728
033567,0.556884765625,0.6080203652381897,0.5407800078392029,0.7111549973487854
033568,0.365234375,0.43257957696914673,0.26521679759025574,0.4437587559223175
033571,0.956298828125,0.9600095748901367,0.7169486284255981,0.8192703127861023
033572,0.3125,0.32369327545166016,0.2682024836540222,0.5649425983428955
033573,0.9673665165901184,0.9676781296730042,0.8748590350151062,0.7535185217857361
033577,0.505615234375,0.5160467624664307,0.37429502606391907,0.6576465964317322
033588,0.393798828125,0.4344139099121094,0.690318763256073,0.839723527431488
033589,0.968017578125,0.9680657386779785,1.0,0.9031727313995361
033592,0.9466145634651184,0.9527072310447693,0.8072783350944519,0.8970556855201721
033594,0.94140625,0.9453338384628296,0.8970906734466553,0.9628022313117981
033595,0.712158203125,0.712287187576294,0.8569586873054504,0.8637406826019287
033596,0.703369140625,0.7102126479148865,0.5620065331459045,0.6132498979568481
033597,0.9668782353401184,0.9670498967170715,0.7810032963752747,0.6606215834617615
033598,0.455078125,0.5202177166938782,0.2728845775127411,0.37626591324806213
033600,0.450927734375,0.4600454866886139,0.3482339084148407,0.6629415154457092
033603,0.957763671875,0.9581069946289062,0.7236568927764893,0.7823973894119263
033605,0.469970703125,0.47436368465423584,0.5924884676933289,0.696150004863739
033606,0.9668782353401184,0.9677630662918091,0.7810032963752747,0.8946126103401184
033607,0.455078125,0.4786791205406189,0.5907889604568481,0.6102907061576843
033608,0.968017578125,0.968056857585907,1.0,0.9031988382339478
033609,0.619873046875,0.6219096183776855,0.7233965992927551,0.7740465402603149
033610,0.46875,0.4837814271450043,0.3384338617324829,0.6665051579475403
033611,0.953369140625,0.9584594368934631,0.7479812502861023,0.8178932666778564
033612,0.21875,0.3075823187828064,0.2111494094133377,0.5144078731536865
033613,0.431884765625,0.4936245083808899,0.3415256440639496,0.4514240622520447
033617,0.959228515625,0.9599988460540771,0.7631344795227051,0.8111121654510498
033618,0.9673665165901184,0.9674588441848755,1.0,0.980754017829895
033619,0.520263671875,0.5209916830062866,0.5620065331459045,0.7021055817604065
033620,0.556884765625,0.6086692810058594,0.4431702494621277,0.6115174293518066
033621,0.9466145634651184,0.9470540285110474,0.9288777112960815,0.9483014345169067
033623,0.703369140625,0.7035675048828125,0.7838867902755737,0.6925345659255981
033625,0.9375,0.9443223476409912,0.6545500159263611,0.7709059119224548
033626,0.94140625,0.95086270570755,0.5162065625190735,0.6838458180427551
033627,0.939453125,0.9533888101577759,0.489017516374588,0.6333316564559937
033628,0.9668782353401184,0.9671961069107056,0.892719030380249,0.8566491603851318
033631,0.953369140625,0.9568488597869873,0.6543781161308289,0.5980380773544312
033633,0.0625,0.24596267938613892,0.03576033189892769,0.3599582016468048
033634,0.450927734375,0.4602208137512207,0.39804574847221375,0.6190667748451233
033635,0.703369140625,0.703369140625,0.8588406443595886,0.8588406443595886
033636,0.2774251401424408,0.4274746775627136,0.19284793734550476,0.6042975187301636
033638,0.0625,0.14453125,0.05020960420370102,0.18617568910121918
033639,0.659423828125,0.6618490219116211,0.5918076038360596,0.5374647974967957
033640,0.943115234375,0.9509130716323853,0.7475366592407227,0.9251465201377869
033642,0.9673665165901184,0.9676533341407776,1.0,0.9960020780563354
033643,0.701171875,0.7036744356155396,0.7871269583702087,0.8433217406272888
033645,0.261474609375,0.3301825523376465,0.22860826551914215,0.40293359756469727
033646,0.966796875,0.966796875,0.7653606534004211,0.5261971950531006
033647,0.9388020634651184,0.9420064091682434,0.7410414814949036,0.8295357823371887
033649,0.580322265625,0.6037958860397339,0.86592036485672,0.7608726024627686
033650,0.09375,0.249267578125,0.0904926061630249,0.46980035305023193
033652,0.505615234375,0.5145232081413269,0.37429502606391907,0.6149920225143433
033654,0.393798828125,0.43414419889450073,0.690318763256073,0.761335015296936
033656,0.9507649540901184,0.9553165435791016,0.6379934549331665,0.6244294047355652
033657,0.9673665165901184,0.9676758050918579,1.0,0.8602611422538757
033662,0.706298828125,0.7100067138671875,0.7139173746109009,0.8017221093177795
033664,0.966796875,0.9673035740852356,0.7653606534004211,0.7565035223960876
033665,0.9668782353401184,0.967336893081665,0.892719030380249,0.960975706577301
033666,0.962158203125,0.9621925354003906,0.9625431895256042,0.9631113409996033
033669,0.956298828125,0.959234893321991,1.0,0.9647652506828308
033672,0.1458333432674408,0.23895105719566345,0.15272833406925201,0.3615403175354004
033673,0.943359375,0.9511087536811829,0.6040917634963989,0.7997382879257202
033676,0.4375,0.526049792766571,0.30545666813850403,0.4481731653213501
033677,0.606689453125,0.6416265964508057,0.5334192514419556,0.76752108335495
033678,0.9466145634651184,0.951602578163147,0.5787770748138428,0.785153329372406
033679,0.701171875,0.70281982421875,0.7871269583702087,0.7995113134384155
033683,0.556884765625,0.556884765625,0.5407800078392029,0.5119181275367737
033684,0.962158203125,0.9624401926994324,0.8420895934104919,0.8457531929016113
033687,0.940673828125,0.9420685768127441,1.0,0.9981918334960938
033688,0.9507649540901184,0.9511220455169678,0.974961519241333,0.9734137058258057
033689,0.967041015625,0.9677895307540894,0.8122885227203369,0.8843945860862732
033690,0.450927734375,0.4613518714904785,0.3482339084148407,0.600450336933136
033692,0.94140625,0.9463653564453125,0.7888506054878235,0.9199642539024353
033694,0.951171875,0.9583301544189453,0.694340705871582,0.8788905739784241
033696,0.701904296875,0.7070711255073547,0.7402501106262207,0.8406895995140076
033697,0.9375,0.9477783441543579,0.4692787230014801,0.6466105580329895
033699,0.943115234375,0.954659640789032,0.5359453558921814,0.7188226580619812
033700,0.943115234375,0.9439892768859863,0.9849443435668945,0.977843701839447
033702,0.951904296875,0.956132173538208,0.8690900206565857,0.9233222603797913
033703,0.9375,0.9375,0.6545500159263611,0.6098703742027283
033708,0.9444172978401184,0.9475787281990051,0.6219719052314758,0.6380830407142639
033709,0.703369140625,0.7068554162979126,0.7838867902755737,0.803413450717926
033710,0.323974609375,0.36711418628692627,0.5520787835121155,0.7389520406723022
033711,0.47265625,0.5853188037872314,0.3039627969264984,0.6664089560508728
033712,0.508056640625,0.5149939656257629,0.5334192514419556,0.7351273894309998
033713,0.267578125,0.31251049041748047,0.23635835945606232,0.3066977858543396
033716,0.3125,0.3131510317325592,0.4312131702899933,0.4516933560371399
033717,0.3125,0.32127219438552856,0.23463936150074005,0.4387257397174835
033718,0.606689453125,0.6358736753463745,0.6509066820144653,0.7310373187065125
033719,0.9444172978401184,0.9522147178649902,0.544137716293335,0.5579230189323425
033720,0.0625,0.08059082180261612,0.08624263107776642,0.1258486956357956
033721,0.450927734375,0.4577072262763977,0.3482339084148407,0.4267536401748657
033722,0.0,0.0,0.0,0.0
033725,0.0625,0.2606756389141083,0.04692786931991577,0.42075562477111816
033726,0.505615234375,0.5110231041908264,0.37429502606391907,0.5016373991966248
033728,0.501953125,0.5132064819335938,0.3741941750049591,0.5913829803466797
033729,0.701904296875,0.7079996466636658,0.5307213068008423,0.7308825850486755
033730,0.619873046875,0.6270726323127747,0.4733748733997345,0.6358981132507324
033731,0.943115234375,0.9544447660446167,0.6126077175140381,0.6847987771034241
033733,0.939453125,0.9460906982421875,0.5589672327041626,0.7264426350593567
033734,0.953369140625,0.9589806795120239,0.6543781161308289,0.7547062039375305
033737,0.712158203125,0.7126783132553101,0.7497180104255676,0.7311146259307861
033738,0.4700520932674408,0.4764607846736908,0.3563140034675598,0.35683396458625793
033739,0.956298828125,0.9586659669876099,1.0,0.9369432330131531
033740,0.967041015625,0.9672220349311829,1.0,1.0
033741,0.304931640625,0.4106243848800659,0.22860826551914215,0.522131085395813
033742,0.946533203125,0.9490247964859009,0.575423002243042,0.5652371048927307
033743,0.4700520932674408,0.4721338152885437,0.3563140034675598,0.30657532811164856
033744,0.08203125,0.2656686007976532,0.053640495985746384,0.38297030329704285
033746,0.967041015625,0.9675548076629639,0.9284793138504028,0.912561297416687
033749,0.953369140625,0.9603385925292969,0.6543781161308289,0.8789042234420776
033751,0.44140625,0.446953684091568,0.501995861530304,0.6306924819946289
033752,0.959228515625,0.959998369216919,0.7631344795227051,0.9008726477622986
033753,0.4778645932674408,0.48558732867240906,0.4055802822113037,0.6939215660095215
033754,0.967041015625,0.9676457643508911,0.8122885227203369,0.9417378306388855
033755,0.946533203125,0.9555726051330566,0.575423002243042,0.7447428703308105
033756,0.703369140625,0.7082091569900513,0.5620065331459045,0.6776518225669861
033757,0.9375,0.947265625,0.4692787230014801,0.4497690796852112
033758,0.499755859375,0.5651840567588806,0.4098700284957886,0.560675323009491
033763,0.953369140625,0.9569026231765747,0.912726640701294,0.8098030090332031
033764,0.947998046875,0.9549071788787842,0.6841284036636353,0.8321123123168945
033765,0.556884765625,0.5711112022399902,0.9594535827636719,0.7943279147148132
033766,0.499755859375,0.5806068181991577,0.4098700284957886,0.6068099141120911
033768,0.584228515625,0.5850107669830322,0.6245770454406738,0.7768750190734863
033770,0.9668782353401184,0.9675033092498779,0.7810032963752747,0.728043794631958
033771,0.9673665165901184,0.9677098393440247,1.0,0.9554275274276733
033772,0.393798828125,0.4535156786441803,0.38908666372299194,0.6149692535400391
033776,0.951904296875,0.9567989706993103,0.7122209072113037,0.7459354996681213
033778,0.959228515625,0.9595530033111572,0.8722942471504211,0.8914233446121216
033781,0.953369140625,0.9588345289230347,0.6543781161308289,0.7234817147254944
033782,0.2122395932674408,0.2867717742919922,0.19284793734550476,0.3995620012283325
033783,0.584228515625,0.5848150253295898,0.7139173746109009,0.792194128036499
033784,0.706298828125,0.7088093757629395,0.7139173746109009,0.6027379631996155
033785,0.953369140625,0.9602168202400208,0.6543781161308289,0.6981401443481445
033786,0.943115234375,0.9522279500961304,0.6126077175140381,0.783301591873169
033791,0.659423828125,0.6611183881759644,0.6764605641365051,0.562805712223053
033792,0.9673665165901184,0.9678978323936462,0.8748590350151062,0.8112784028053284
033793,0.967041015625,0.9676477909088135,0.8122885227203369,0.9087626338005066
033794,0.4778645932674408,0.4836980700492859,0.4055802822113037,0.5972679257392883
033795,0.968017578125,0.9680617451667786,1.0,0.9471018314361572
033796,0.946533203125,0.9532246589660645,0.6577322483062744,0.8102030158042908
033798,0.1106770858168602,0.24344933032989502,0.0855669379234314,0.3776700496673584
033800,0.9668782353401184,0.9674760699272156,0.7810032963752747,0.8281164765357971
033802,0.568359375,0.5778473615646362,0.3899376392364502,0.4995247423648834
033803,0.956298828125,0.9610446095466614,0.7169486284255981,0.730678379535675
033804,0.48828125,0.4888131320476532,0.5307213068008423,0.5641713738441467
033807,0.951171875,0.9544677734375,0.694340705871582,0.7667362689971924
033808,0.3599446713924408,0.4363274574279785,0.26257050037384033,0.5691269636154175
033809,0.962158203125,0.9623942971229553,0.9625431895256042,0.7899612188339233
033810,0.431884765625,0.47909870743751526,0.3415256440639496,0.4318757951259613
033811,0.47265625,0.5648908019065857,0.2659246027469635,0.47358593344688416
033812,0.706298828125,0.7095444202423096,0.871160089969635,0.8891936540603638
033813,0.957763671875,0.9580181837081909,0.8271697163581848,0.7627116441726685
033814,0.490234375,0.51165771484375,0.5961710214614868,0.5239719748497009
033817,0.344482421875,0.401574045419693,0.31885725259780884,0.6410737037658691
033818,0.490234375,0.5901214480400085,0.3180091083049774,0.6812653541564941
033822,0.16796875,0.29711946845054626,0.14772342145442963,0.5997427105903625
033824,0.968017578125,0.9680615067481995,1.0,0.9458252787590027
033825,0.9507649540901184,0.9555580019950867,0.6379934549331665,0.7892958521842957
033827,0.953369140625,0.953369140625,1.0,1.0
033829,0.962158203125,0.9624891877174377,0.9625431895256042,0.8849484324455261
033833,0.3059895932674408,0.36868205666542053,0.2836383283138275,0.4311358630657196
033834,0.510498046875,0.511938750743866,0.49935534596443176,0.46638065576553345
033835,0.323974609375,0.3744724988937378,0.3111700117588043,0.42717283964157104
033836,0.953369140625,0.9580938816070557,0.7479812502861023,0.7593482136726379
033837,0.9388020634651184,0.9448769688606262,0.6763683557510376,0.7089869976043701
033839,0.568359375,0.5750489234924316,0.4457148313522339,0.606451153755188
033841,0.659423828125,0.6625725030899048,0.5918076038360596,0.5897811651229858
033842,0.967041015625,0.9678071737289429,0.8122885227203369,0.7772082090377808
033843,0.560546875,0.6093182563781738,0.4082580804824829,0.5226954817771912
033845,0.300537109375,0.3851933777332306,0.30181336402893066,0.5084447264671326
033846,0.967041015625,0.9676668047904968,0.8122885227203369,0.8288933634757996
033848,0.9673665165901184,0.9675400853157043,1.0,0.7919268012046814
033849,0.957763671875,0.958064079284668,0.7236568927764893,0.5706982016563416
033850,0.956298828125,0.9592453837394714,0.7169486284255981,0.7083151936531067
033851,0.21875,0.29183229804039,0.29608193039894104,0.4906471073627472
033853,0.508056640625,0.5129557251930237,0.46666663885116577,0.6553863286972046
033855,0.606689453125,0.6436026692390442,0.5334192514419556,0.7500156164169312
033858,0.959228515625,0.9598236083984375,0.7631344795227051,0.7739132046699524
033860,0.967041015625,0.9677246809005737,0.8122885227203369,0.781448483467102
033863,0.9388020634651184,0.951581597328186,0.48492133617401123,0.6617444753646851
033864,0.46875,0.472165584564209,0.3384338617324829,0.32445552945137024
033868,0.9668782353401184,0.9674906134605408,0.7810032963752747,0.8267719745635986
033869,0.0,0.0,0.0,0.0
033872,0.968017578125,0.9680679440498352,1.0,0.9313967823982239
033874,0.943115234375,0.9545522332191467,0.5359453558921814,0.6328653693199158
033875,0.4778645932674408,0.4803869128227234,0.4635950028896332,0.41275280714035034
033876,0.47265625,0.5491442680358887,0.3039627969264984,0.5383204221725464
033879,0.25390625,0.34062594175338745,0.25817668437957764,0.5851513147354126
033881,0.951171875,0.956725001335144,0.8472716808319092,0.8251171112060547
033883,0.9673665165901184,0.9677355289459229,0.8748590350151062,0.8367012739181519
033884,0.571533203125,0.5737895965576172,0.49935534596443176,0.46439340710639954
033885,0.962158203125,0.9625058770179749,0.9625431895256042,0.833767831325531
033886,0.4375,0.48298341035842896,0.30545666813850403,0.4231903851032257
033888,0.951171875,0.9577174186706543,0.694340705871582,0.7908058762550354
033889,0.9673665165901184,0.9678975343704224,0.8748590350151062,0.9044551253318787
033891,0.967041015625,0.9675914645195007,0.8122885227203369,0.7688669562339783
033893,0.9673665165901184,0.9677544832229614,0.8748590350151062,0.8934231996536255
033895,0.263671875,0.2682563066482544,0.90728360414505,0.9631043672561646
033897,0.967041015625,0.9676632881164551,0.8122885227203369,0.7745338678359985
033899,0.968017578125,0.9680593013763428,1.0,0.896961510181427
033900,0.9673665165901184,0.9678449630737305,0.8748590350151062,0.9062247276306152
033901,0.962158203125,0.9625161290168762,0.9625431895256042,0.9242286086082458
033902,0.967041015625,0.9675523638725281,0.8122885227203369,0.797530472278595
033903,0.304931640625,0.4036533534526825,0.2789600193500519,0.5742782950401306
033904,0.584228515625,0.5848420262336731,0.6245770454406738,0.7461556792259216
033906,0.9673665165901184,0.9677433371543884,0.8748590350151062,0.890871524810791
033908,0.701904296875,0.7098645567893982,0.6066363453865051,0.7445933818817139
033909,0.951171875,0.958463728427887,0.6074502468109131,0.7898335456848145
033912,0.659423828125,0.6641996502876282,0.5918076038360596,0.6922504305839539
033914,0.9668782353401184,0.9674407839775085,0.892719030380249,0.8354091644287109
033915,0.95703125,0.9576507806777954,0.8046074509620667,0.889695942401886
033916,0.968017578125,0.9680653810501099,1.0,0.8862208724021912
033917,0.956298828125,0.9595595002174377,1.0,0.9549151659011841
033920,0.951904296875,0.9563112854957581,0.8690900206565857,0.9617922902107239
033922,0.968017578125,0.9680424332618713,1.0,0.8247524499893188
033924,0.9466145634651184,0.9486798048019409,0.5787770748138428,0.48078951239585876
033925,0.956298828125,0.9606457352638245,0.7169486284255981,0.8621426820755005
033927,0.9668782353401184,0.9674810767173767,0.7810032963752747,0.7485398054122925
033929,0.9507649540901184,0.9575368165969849,0.7292529344558716,0.8898764848709106
033930,0.3599446713924408,0.4410566985607147,0.36623337864875793,0.6366679072380066
033931,0.968017578125,0.9680770635604858,1.0,0.8490282297134399
033932,0.9673665165901184,0.967901885509491,0.8748590350151062,0.944948673248291
033933,0.431884765625,0.49392634630203247,0.390377938747406,0.5890071392059326
033934,0.48828125,0.4891279935836792,0.5307213068008423,0.7426961064338684
033936,0.659423828125,0.6625968217849731,0.6764605641365051,0.7481591701507568
033937,0.962158203125,0.9624074697494507,0.9625431895256042,0.8600565791130066
033939,0.962158203125,0.9626854062080383,0.8420895934104919,0.8350427150726318
033940,0.959228515625,0.95992511510849,0.7631344795227051,0.9051692485809326
033941,0.968017578125,0.9680666327476501,1.0,0.9748108983039856
033945,0.953369140625,0.9554556608200073,0.7479812502861023,0.6264439225196838
033947,0.9673665165901184,0.9677420854568481,1.0,0.9206609129905701
033949,0.9466145634651184,0.9552029371261597,0.5787770748138428,0.7536990642547607
033951,0.701904296875,0.7053813338279724,0.7402501106262207,0.833415687084198
033952,0.374755859375,0.4252292513847351,0.3454500138759613,0.4078536629676819
033954,0.953369140625,0.9575522541999817,0.7479812502861023,0.7835127711296082
033955,0.9444172978401184,0.9542198181152344,0.544137716293335,0.7535256147384644
033958,0.706298828125,0.7110552191734314,0.6245770454406738,0.7088445425033569
033959,0.9375,0.938671886920929,0.4692787230014801,0.34128889441490173
033962,0.531982421875,0.5973863005638123,0.3482339084148407,0.6273018717765808
033963,0.951171875,0.9568555951118469,0.8472716808319092,0.8867383003234863
033964,0.968017578125,0.9680518507957458,1.0,0.8943515419960022
033966,0.9673665165901184,0.9678969979286194,0.8748590350151062,0.9509767293930054
033967,0.9668782353401184,0.967304527759552,0.892719030380249,0.9855483770370483
033969,0.61328125,0.6197509765625,0.5185247659683228,0.6780131459236145
033971,0.659423828125,0.6624919772148132,0.5918076038360596,0.6944746971130371
033974,0.9375,0.943774402141571,0.4692787230014801,0.516876757144928
033976,0.947998046875,0.9559430480003357,0.5985158681869507,0.6864114999771118
033977,0.947998046875,0.9559122323989868,0.5985158681869507,0.6548960208892822
033978,0.9673665165901184,0.9679030776023865,0.8748590350151062,0.9528046250343323
033980,0.510498046875,0.5146694183349609,0.49935534596443176,0.554164707660675
033981,0.9668782353401184,0.9675732254981995,0.7810032963752747,0.7548607587814331
033984,0.962158203125,0.9625001549720764,0.8420895934104919,0.8063932657241821
033985,0.951904296875,0.9599252939224243,0.6230928897857666,0.657465934753418
033986,0.701904296875,0.7100308537483215,0.5307213068008423,0.8404966592788696
033990,0.9673665165901184,0.9677371382713318,1.0,0.937561571598053
033991,0.968017578125,0.9680464267730713,1.0,0.8288158774375916
033992,0.967041015625,0.967671811580658,0.8122885227203369,0.8845064640045166
033993,0.967041015625,0.9676777720451355,0.8122885227203369,0.7815564274787903
033994,0.633056640625,0.6376815438270569,0.5128524899482727,0.6149201989173889
033995,0.9673665165901184,0.9675038456916809,1.0,0.8399406671524048
033998,0.967041015625,0.9676961302757263,0.8122885227203369,0.8781439065933228
034000,0.9466145634651184,0.9509966969490051,0.6615661382675171,0.7211531400680542
034001,0.365234375,0.4272085428237915,0.3236317038536072,0.4492873549461365
034003,0.967041015625,0.967477560043335,0.8122885227203369,0.7260677814483643
034004,0.469970703125,0.4755825400352478,0.5407800078392029,0.639838457107544
034005,0.9673665165901184,0.9678165316581726,0.8748590350151062,0.9669770002365112
034006,0.968017578125,0.9680452942848206,1.0,0.8526394963264465
034007,0.9673665165901184,0.9677664041519165,0.8748590350151062,0.8966405987739563
034008,0.263671875,0.2884277403354645,0.23391999304294586,0.25903216004371643
034010,0.499755859375,0.6052830219268799,0.293855756521225,0.5464330911636353
034011,0.959228515625,0.9596264362335205,0.7631344795227051,0.7627588510513306
034013,0.967041015625,0.9673842787742615,1.0,0.9551767706871033
034014,0.968017578125,0.9680516719818115,1.0,0.8480587601661682
034020,0.953369140625,0.9590004086494446,0.7479812502861023,0.8275185227394104
034021,0.953369140625,0.9591654539108276,0.7479812502861023,0.8917475938796997
034022,0.9668782353401184,0.9676752686500549,0.7810032963752747,0.7963208556175232
034023,0.701171875,0.7080743908882141,0.5150786638259888,0.6123856902122498
034024,0.947998046875,0.9536322951316833,0.6841284036636353,0.8047870397567749
034026,0.968017578125,0.968058168888092,1.0,0.8781662583351135
034027,0.968017578125,0.9680619239807129,1.0,0.8810149431228638
034028,0.9375,0.9462635517120361,0.5364049673080444,0.5585222840309143
034030,0.518798828125,0.5459892153739929,0.496870219707489,0.47090670466423035
034032,0.3599446713924408,0.440973699092865,0.26257050037384033,0.4377833306789398
034033,0.968017578125,0.9680708050727844,1.0,0.9474210739135742
034034,0.9673665165901184,0.9679037928581238,0.8748590350151062,0.9290966987609863
034037,0.962158203125,0.9623918533325195,0.9625431895256042,0.91566002368927
034038,0.556884765625,0.5910010933876038,0.8308104276657104,0.9457634091377258
034039,0.967041015625,0.9675314426422119,0.9284793138504028,0.9233535528182983
034042,0.393798828125,0.4112052917480469,0.8579513430595398,0.7542371153831482
034043,0.3125,0.327597051858902,0.2682024836540222,0.5985974669456482
034045,0.968017578125,0.9680610299110413,1.0,0.8318558931350708
034047,0.95703125,0.9578278064727783,0.7039180397987366,0.8715992569923401
034048,0.9673665165901184,0.9677157998085022,0.8748590350151062,0.8069309592247009
034050,0.968017578125,0.9680383205413818,1.0,0.8344045877456665
034051,0.9466145634651184,0.9511221051216125,0.6615661382675171,0.6050857305526733
034052,0.966796875,0.9675002694129944,0.7653606534004211,0.7844324111938477
034054,0.962158203125,0.962509036064148,0.8420895934104919,0.7844396233558655
034055,0.267578125,0.3432188332080841,0.16945679485797882,0.25674206018447876
034056,0.968017578125,0.968039870262146,1.0,0.9813220500946045
034058,0.9673665165901184,0.9678477048873901,0.8748590350151062,0.9532560110092163
034060,0.505615234375,0.5116605162620544,0.427834689617157,0.4413834512233734
034061,0.260498046875,0.35771864652633667,0.24530528485774994,0.44117453694343567
034062,0.943115234375,0.9516730308532715,0.5359453558921814,0.7083197236061096
034063,0.956298828125,0.9594709873199463,0.7169486284255981,0.7721186876296997
034065,0.9673665165901184,0.9678944945335388,0.8748590350151062,0.7406036257743835
034068,0.957763671875,0.9581544995307922,0.8271697163581848,0.8031046390533447
034070,0.959228515625,0.9599957466125488,0.7631344795227051,0.8825242519378662
034071,0.703369140625,0.7076542973518372,0.6423966884613037,0.7104990482330322
034072,0.956298828125,0.9591545462608337,0.7169486284255981,0.7056835293769836
034074,0.263671875,0.279144287109375,0.7653606534004211,0.8557504415512085
034075,0.1875,0.1875,0.14342738687992096,0.1350831836462021
034076,0.469970703125,0.47842714190483093,0.3877114951610565,0.5930811762809753
034078,0.712158203125,0.7122374773025513,0.8569586873054504,0.7258220314979553
034080,0.518798828125,0.5635523796081543,0.8046129941940308,0.8609660267829895
034081,0.959228515625,0.9595450758934021,0.7631344795227051,0.7084739208221436
034083,0.943115234375,0.9523628950119019,0.6126077175140381,0.7924863696098328
034084,0.520263671875,0.5206960439682007,0.5620065331459045,0.5235234498977661
034087,0.95703125,0.9579601287841797,0.7039180397987366,0.6993658542633057
034088,0.703369140625,0.7072017788887024,0.6423966884613037,0.7294384241104126
034089,0.393798828125,0.45592331886291504,0.5977610945701599,0.7970063090324402
034090,0.962158203125,0.962158203125,0.9625431895256042,0.9625431895256042
034091,0.2122395932674408,0.26724252104759216,0.23532335460186005,0.32286396622657776
034092,0.706298828125,0.7081604599952698,0.7139173746109009,0.6144752502441406
034093,0.956298828125,0.9610891342163086,0.8195018768310547,0.9487975239753723
034094,0.9668782353401184,0.9670714735984802,0.892719030380249,0.707610011100769
034095,0.959228515625,0.959710419178009,0.7631344795227051,0.8158066272735596
034096,0.580322265625,0.592901885509491,1.0,0.9833992719650269
034097,0.953369140625,0.9592193961143494,0.7479812502861023,0.9153356552124023
034099,0.95703125,0.957542359828949,0.7039180397987366,0.574564516544342
034101,0.9507649540901184,0.9538053274154663,0.7292529344558716,0.6638963222503662
034102,0.94140625,0.9484507441520691,0.7200049757957458,0.7632330060005188
034103,0.3599446713924408,0.43449723720550537,0.36623337864875793,0.6270008683204651
034104,0.967041015625,0.9678056836128235,0.8122885227203369,0.8405569195747375
034105,0.4375,0.5041732788085938,0.21899673342704773,0.3328910768032074
034106,0.9388020634651184,0.9388020634651184,0.6763683557510376,0.5948123931884766
034107,0.5757649540901184,0.5827773809432983,0.49943602085113525,0.7499396204948425
034108,0.490234375,0.5539588332176208,0.3180091083049774,0.4123555123806
034112,0.957763671875,0.9583908319473267,0.7236568927764893,0.8280993103981018
034113,0.9673665165901184,0.967894971370697,0.8748590350151062,0.9220412373542786
034116,0.946533203125,0.9547920227050781,0.575423002243042,0.775911808013916
034117,0.659423828125,0.6641241908073425,0.6764605641365051,0.7417101263999939
034122,0.968017578125,0.9680546522140503,1.0,0.9303722381591797
034123,0.9673665165901184,0.9676838517189026,1.0,0.9422469735145569
034128,0.9673665165901184,0.9677270650863647,0.8748590350151062,0.9292364716529846
034129,0.962158203125,0.9626957178115845,0.8420895934104919,0.9063523411750793
034130,0.703369140625,0.7047080993652344,0.8588406443595886,0.8670529127120972
034131,0.962158203125,0.9623036980628967,0.8420895934104919,0.7825559377670288
034132,0.962158203125,0.962437093257904,0.9625431895256042,0.801192581653595
034133,0.03125,0.052001953125,0.022562257945537567,0.039892517030239105
034136,0.962158203125,0.9625809192657471,0.8420895934104919,0.8488099575042725
034139,0.966796875,0.9674807786941528,0.7653606534004211,0.759732186794281
034140,0.959228515625,0.95978844165802,0.7631344795227051,0.6669439077377319
034141,0.556884765625,0.6089786887168884,0.5407800078392029,0.7384178042411804
034142,0.943115234375,0.952285647392273,0.5359453558921814,0.7027132511138916
034144,0.962158203125,0.9622797966003418,0.9625431895256042,0.8202519416809082
034146,0.968017578125,0.968052864074707,1.0,0.8878224492073059
034147,0.967041015625,0.9677950739860535,0.8122885227203369,0.9753835797309875
034148,0.9375,0.940234363079071,0.5364049673080444,0.44924086332321167
034149,0.956298828125,0.9610885977745056,0.8195018768310547,0.9234411120414734
034150,0.946533203125,0.9547154307365417,0.575423002243042,0.6839852929115295
034153,0.703369140625,0.7101057767868042,0.5620065331459045,0.577957808971405
034155,0.957763671875,0.9586570262908936,0.7236568927764893,0.8588548898696899
034157,0.9673665165901184,0.9678269028663635,0.8748590350151062,0.8273023366928101
034158,0.956298828125,0.9611718058586121,0.7169486284255981,0.869641900062561
034160,0.947998046875,0.9557228088378906,0.6841284036636353,0.901265025138855
034162,0.9673665165901184,0.9677013158798218,0.8748590350151062,0.7560961842536926
034164,0.951904296875,0.9586642980575562,0.6230928897857666,0.6885063648223877
034165,0.518798828125,0.5848572254180908,0.3251410126686096,0.6675148606300354
034166,0.703369140625,0.7102619409561157,0.5620065331459045,0.6879318952560425
034169,0.968017578125,0.9680511355400085,1.0,0.731539249420166
034173,0.505615234375,0.5153667330741882,0.37429502606391907,0.668968677520752
034174,0.47265625,0.5829209089279175,0.3039627969264984,0.5073202848434448
034175,0.9444172978401184,0.9535955190658569,0.7589633464813232,0.9301329255104065
034179,0.606689453125,0.6499486565589905,0.5334192514419556,0.6948941946029663
034182,0.95703125,0.9576703906059265,0.8046074509620667,0.7873449921607971
034186,0.959228515625,0.9598812460899353,0.7631344795227051,0.8686423897743225
034187,0.9673665165901184,0.9676885008811951,0.8748590350151062,0.8236483931541443
034188,0.659423828125,0.6635249853134155,0.5918076038360596,0.770807683467865
034189,0.959228515625,0.9597199559211731,0.7631344795227051,0.8574826717376709
034190,0.946533203125,0.9517996907234192,0.8026000261306763,0.8166059255599976
034191,0.0,0.08167855441570282,0.0,0.10378942638635635
034192,0.940673828125,0.9501391649246216,0.5768473744392395,0.6494797468185425
034193,0.712158203125,0.7126975059509277,0.7497180104255676,0.8134605288505554
034194,0.962158203125,0.9623221158981323,0.9625431895256042,0.9611220955848694
034195,0.560546875,0.6225650310516357,0.3571682572364807,0.5769473314285278
034197,0.951904296875,0.957127571105957,0.7122209072113037,0.8025798201560974
034198,0.9507649540901184,0.9547460675239563,0.7292529344558716,0.737120509147644
034199,0.393798828125,0.41965165734291077,0.31885725259780884,0.2971499562263489
034200,0.25390625,0.31192779541015625,0.45805788040161133,0.6851385831832886
034201,0.48828125,0.48889341950416565,0.5307213068008423,0.5450196266174316
034203,0.953369140625,0.9604085683822632,0.6543781161308289,0.887908935546875
034204,0.9668782353401184,0.9671545624732971,0.7810032963752747,0.74504554271698
034205,0.966796875,0.9675644636154175,0.7653606534004211,0.8386855721473694
034207,0.61328125,0.61712646484375,0.6327316761016846,0.7642846703529358
034209,0.9668782353401184,0.9676227569580078,0.7810032963752747,0.8616920709609985
034210,0.12109375,0.1872420310974121,0.10909166932106018,0.236764594912529
034211,0.4700520932674408,0.4841936230659485,0.3117245137691498,0.45255470275878906
034216,0.197998046875,0.29241684079170227,0.2100154310464859,0.41762876510620117
034219,0.946533203125,0.9527603387832642,0.6577322483062744,0.6598110198974609
034220,0.2122395932674408,0.2854566276073456,0.19284793734550476,0.3425668776035309
034221,0.953369140625,0.9583062529563904,0.6543781161308289,0.7528361678123474
034222,0.947998046875,0.9520751237869263,0.5985158681869507,0.5589570999145508
034223,0.0625,0.19820404052734375,0.09622055292129517,0.47296714782714844
034224,0.9668782353401184,0.9672857522964478,0.7810032963752747,0.7028422355651855
034227,0.4700520932674408,0.4841054379940033,0.3563140034675598,0.6737918257713318
034229,0.962158203125,0.9626040458679199,0.8420895934104919,0.8657515048980713
034230,0.701904296875,0.7074952721595764,0.5307213068008423,0.6545647978782654
034231,0.51953125,0.5813010931015015,0.3754834830760956,0.5839863419532776
034236,0.962158203125,0.9624631404876709,0.8420895934104919,0.7667397260665894
034237,0.47265625,0.480022132396698,0.3430097699165344,0.48044854402542114
034242,0.943359375,0.9449462890625,0.7371450066566467,0.6793858408927917
034243,0.08984375,0.17008209228515625,0.06666666269302368,0.17116457223892212
034244,0.1875,0.38707536458969116,0.09385573863983154,0.43482857942581177
034245,0.263671875,0.263671875,0.17496776580810547,0.14733828604221344
034250,0.947998046875,0.9515629410743713,0.6841284036636353,0.6010109186172485
034251,0.469970703125,0.4778234362602234,0.4431702494621277,0.614546537399292
034252,0.09375,0.12929686903953552,0.12689225375652313,0.1725451797246933
034253,0.606689453125,0.606689453125,1.0,1.0
034254,0.9673665165901184,0.9677510261535645,0.8748590350151062,0.9185712933540344
034255,0.16796875,0.26845043897628784,0.18026001751422882,0.4876352846622467
034257,0.9668782353401184,0.967736542224884,0.7810032963752747,0.970040500164032
034259,0.21875,0.3561367392539978,0.13817155361175537,0.5262473225593567
034260,0.267578125,0.3831882178783417,0.16945679485797882,0.4862169921398163
034261,0.9375,0.9399169683456421,0.7171369194984436,0.7194796204566956
034262,0.968017578125,0.9680628180503845,1.0,0.9958614706993103
034265,0.943359375,0.9497314095497131,0.5284951329231262,0.532619297504425
034266,0.946533203125,0.9541162252426147,0.6577322483062744,0.7799320220947266
034268,0.712158203125,0.7124074697494507,0.8569586873054504,0.7567523717880249
034274,0.9673665165901184,0.9678061604499817,0.8748590350151062,0.9143120646476746
034275,0.703369140625,0.7080559134483337,0.5620065331459045,0.6385295987129211
034276,0.951904296875,0.9569262266159058,0.7122209072113037,0.6895292401313782
034277,0.956298828125,0.9603297114372253,0.8195018768310547,0.8523579835891724
034281,0.951171875,0.9552093744277954,0.694340705871582,0.671782374382019
034283,0.03125,0.15504351258277893,0.02753167226910591,0.19919326901435852
034284,0.9673665165901184,0.9678084850311279,0.8748590350151062,0.8301942348480225
034285,0.9673665165901184,0.9676812291145325,0.8748590350151062,0.7165205478668213
034286,0.46875,0.4729802906513214,0.3384338617324829,0.36585530638694763
034287,0.488037109375,0.5937134623527527,0.2856633961200714,0.6770411133766174
034288,0.2122395932674408,0.2622273862361908,0.19284793734550476,0.2435317486524582
034289,0.9507649540901184,0.9570255875587463,0.6379934549331665,0.8276200890541077
034290,0.946533203125,0.9534903764724731,0.6577322483062744,0.8309639096260071
034291,0.95703125,0.9573165774345398,0.8046074509620667,0.8784710168838501
034294,0.9375,0.9454345703125,0.5364049673080444,0.5937713384628296
034295,0.344482421875,0.4001007080078125,0.31885725259780884,0.3689345121383667
034296,0.503173828125,0.5071864128112793,0.3430097699165344,0.3226768374443054
034300,0.2122395932674408,0.24333970248699188,0.23532335460186005,0.2860008478164673
034301,0.712158203125,0.7124569416046143,0.7497180104255676,0.6715483665466309
034302,0.9673665165901184,0.967765748500824,1.0,0.9968136548995972
034304,0.968017578125,0.9680563807487488,1.0,0.9135992527008057
034307,0.95703125,0.9578375816345215,0.7039180397987366,0.8521163463592529
034311,0.946533203125,0.9501434564590454,0.6577322483062744,0.6937265992164612
034312,0.9673665165901184,0.9677673578262329,0.8748590350151062,0.8609663248062134
034315,0.94140625,0.9514714479446411,0.5900454521179199,0.8501245379447937
034316,0.959228515625,0.9598325490951538,0.7631344795227051,0.9028188586235046
034317,0.956298828125,0.9602295756340027,0.7169486284255981,0.848020076751709
034319,0.4700520932674408,0.4713967740535736,0.500285804271698,0.5165461897850037
034320,0.508056640625,0.5147932767868042,0.5334192514419556,0.7339116930961609
034325,0.505615234375,0.517159640789032,0.427834689617157,0.7389875650405884
034327,0.962158203125,0.9625905752182007,0.8420895934104919,0.8360691666603088
034330,0.9673665165901184,0.9677697420120239,0.8748590350151062,0.9096574187278748
034332,0.956298828125,0.9601917266845703,0.7169486284255981,0.8467478156089783
034333,0.9466145634651184,0.9552673697471619,0.5787770748138428,0.7950757741928101
034334,0.1875,0.25922852754592896,0.23226092755794525,0.4225291609764099
034335,0.619873046875,0.6261172294616699,0.5410870313644409,0.7422484159469604
034336,0.556884765625,0.6123796701431274,0.5407800078392029,0.7541995644569397
034337,0.967041015625,0.9673945307731628,0.9284793138504028,0.8090155720710754
034338,0.47265625,0.4812255799770355,0.8178747296333313,0.9013167023658752
034339,0.25390625,0.2681884765625,0.5692896842956543,0.5977952480316162
034341,0.23828125,0.39343518018722534,0.2446610927581787,0.5637973546981812
034342,0.967041015625,0.9675201177597046,0.8122885227203369,0.8634693622589111
034347,0.956298828125,0.9593903422355652,0.8195018768310547,0.8493779897689819
034348,0.706298828125,0.7111763954162598,0.6245770454406738,0.845510721206665
034351,0.9466145634651184,0.9531759023666382,0.5787770748138428,0.7116482257843018
034352,0.47265625,0.48227691650390625,0.3430097699165344,0.4559907615184784
034354,0.212890625,0.24859619140625,0.67329341173172,0.8453658819198608
034356,0.3059895932674408,0.37275901436805725,0.23244215548038483,0.35445836186408997
034358,0.968017578125,0.9680615663528442,1.0,0.9272130131721497
034362,0.633056640625,0.6377414464950562,0.5862115621566772,0.6565402150154114
034363,0.267578125,0.35803186893463135,0.16945679485797882,0.3211919367313385
034364,0.580322265625,0.6310855150222778,0.4618985950946808,0.6939882636070251
034365,0.939453125,0.943115234375,0.7848228216171265,0.8828869462013245
034368,0.5694172978401184,0.5763732194900513,0.4993056654930115,0.6927384734153748
034369,0.5757649540901184,0.5827382802963257,0.49943602085113525,0.7225162386894226
034371,0.94140625,0.9441701173782349,0.8970906734466553,0.9430438280105591
034374,0.619873046875,0.619873046875,0.5410870313644409,0.47553887963294983
034375,0.4375,0.5128348469734192,0.33466389775276184,0.5737095475196838
034376,0.606689453125,0.6241860389709473,0.5334192514419556,0.5148574113845825
034378,0.4700520932674408,0.4814399778842926,0.38376083970069885,0.6504663228988647
034379,0.9673665165901184,0.9677952527999878,0.8748590350151062,0.9102045893669128
034380,0.09375,0.2499750852584839,0.0676867738366127,0.3260755240917206
034383,0.706298828125,0.707375168800354,0.6245770454406738,0.47379350662231445
034384,0.957763671875,0.9583374857902527,0.7236568927764893,0.5771301984786987
034385,0.703369140625,0.7077003121376038,0.6423966884613037,0.6394814848899841
034389,0.966796875,0.9672675132751465,0.7653606534004211,0.6784558296203613
034390,0.943359375,0.9535035490989685,0.6040917634963989,0.836651086807251
034391,0.951904296875,0.9585624933242798,0.6230928897857666,0.7158044576644897
034393,0.520263671875,0.5209833383560181,0.5620065331459045,0.687248170375824
034395,0.263671875,0.4235067367553711,0.15307211875915527,0.3428759276866913
034396,0.455078125,0.5263505578041077,0.5907889604568481,0.8627422451972961
034397,0.956298828125,0.956298828125,1.0,0.6976874470710754
034399,0.0,0.0616861991584301,0.0,0.20769603550434113
034400,0.962158203125,0.9625288844108582,0.8420895934104919,0.8138615489006042
034401,0.968017578125,0.9680596590042114,1.0,0.9551020264625549
034402,0.956298828125,0.9610928297042847,0.7169486284255981,0.8295294642448425
034403,0.943115234375,0.9499250650405884,0.6597968339920044,0.8348918557167053
034404,0.9466145634651184,0.9513805508613586,0.8072783350944519,0.9291223287582397
034405,0.08984375,0.16524851322174072,0.20503923296928406,0.5443500876426697
034406,0.300537109375,0.3423495292663574,0.24733662605285645,0.296066015958786
034407,0.957763671875,0.9585293531417847,0.7236568927764893,0.7752991318702698
034408,0.0,0.0,0.0,0.0
034409,0.966796875,0.967426061630249,0.8748388290405273,0.787830650806427
034410,0.946533203125,0.9554961323738098,0.575423002243042,0.6581190824508667
034415,0.953369140625,0.9569635987281799,0.6543781161308289,0.6661630272865295
034417,0.956298828125,0.9610992074012756,0.7169486284255981,0.8347879648208618
034418,0.966796875,0.967465341091156,0.7653606534004211,0.7986147403717041
034420,0.712158203125,0.712158203125,0.8569586873054504,0.8569586873054504
034421,0.44140625,0.4424642026424408,0.570875883102417,0.6057911515235901
034422,0.505615234375,0.505615234375,0.6878681778907776,0.6878681778907776
034423,0.9673665165901184,0.9679018259048462,0.8748590350151062,0.9449959397315979
034425,0.1875,0.3109569549560547,0.20111946761608124,0.5041005611419678
034432,0.584228515625,0.5847612619400024,0.6245770454406738,0.6449981927871704
034433,0.946533203125,0.9535126686096191,0.6577322483062744,0.8161841034889221
034435,0.0,0.1914333999156952,0.0,0.39106932282447815
034437,0.95703125,0.9574971199035645,0.7039180397987366,0.7066318988800049
034438,0.260498046875,0.31851959228515625,0.16052241623401642,0.1979198306798935
034439,0.0,0.012500000186264515,0.0,0.045184604823589325
034441,0.968017578125,0.968044102191925,1.0,0.7732231616973877
034443,0.659423828125,0.6613062620162964,0.6764605641365051,0.6466395854949951
034444,0.469970703125,0.47689980268478394,0.3877114951610565,0.5017373561859131
034445,0.957763671875,0.958105206489563,0.7236568927764893,0.6905916333198547
034448,0.1875,0.32341670989990234,0.20111946761608124,0.6448278427124023
034449,0.3599446713924408,0.45150086283683777,0.26257050037384033,0.6099374294281006
034450,0.967041015625,0.9672348499298096,0.8122885227203369,0.7146729230880737
034451,0.44921875,0.5431036949157715,0.2682024836540222,0.5104120373725891
034454,0.968017578125,0.968065083026886,1.0,0.9085054993629456
034457,0.3599446713924408,0.4504038393497467,0.26257050037384033,0.5141063332557678
034458,0.957763671875,0.9584451913833618,0.7236568927764893,0.8444628119468689
034460,0.962158203125,0.9626951813697815,0.8420895934104919,0.9104510545730591
034461,0.39453125,0.3954925537109375,0.5199966430664062,0.45390820503234863
034462,0.962158203125,0.9626358151435852,0.8420895934104919,0.8677981495857239
034463,0.701171875,0.7078225016593933,0.5887562036514282,0.7952815294265747
034464,0.0625,0.06884765625,0.04692786931991577,0.050242625176906586
034470,0.21875,0.241455078125,0.42495885491371155,0.578926682472229
034471,0.388427734375,0.4000169634819031,0.3251410126686096,0.6712468862533569
034472,0.21875,0.22578124701976776,0.3419274091720581,0.35987821221351624
034473,0.9673665165901184,0.9677996635437012,0.8748590350151062,0.9067522883415222
034474,0.95703125,0.9576066136360168,0.8046074509620667,0.7902266979217529
034475,0.30078125,0.3613961935043335,0.3454500138759613,0.621567964553833
034476,0.9673665165901184,0.967745304107666,1.0,0.9689481258392334
034478,0.0,0.1394018530845642,0.0,0.49127864837646484
034479,0.706298828125,0.7106362581253052,0.6245770454406738,0.8414249420166016
034480,0.518798828125,0.5811895132064819,0.4535067081451416,0.6682198643684387
034481,0.488037109375,0.5153802633285522,0.398443341255188,0.37769562005996704
034482,0.39453125,0.3971405029296875,0.5199966430664062,0.6259333491325378
034483,0.967041015625,0.9673881530761719,0.9284793138504028,0.7770799994468689
034484,0.9444172978401184,0.954113245010376,0.6219719052314758,0.797704815864563
034485,0.9375,0.9486480951309204,0.6545500159263611,0.8891220092773438
034487,0.9466145634651184,0.9536689519882202,0.5787770748138428,0.8261981010437012
034488,0.9388020634651184,0.9463842511177063,0.5542851090431213,0.6329307556152344
034489,0.9466145634651184,0.953342080116272,0.6615661382675171,0.8602568507194519
034493,0.95703125,0.9570661187171936,0.8046074509620667,0.6807548403739929
034495,0.1875,0.2531784176826477,0.2886616587638855,0.43952324986457825
034499,0.4375,0.4896678924560547,0.30545666813850403,0.40451496839523315
034500,0.962158203125,0.9625121355056763,0.9625431895256042,0.9680348634719849
034501,0.488037109375,0.5908531546592712,0.398443341255188,0.7418527603149414
034502,0.956298828125,0.9580387473106384,1.0,0.926868200302124
034503,0.51953125,0.5331817865371704,0.7039180994033813,0.6623749136924744
034504,0.556884765625,0.6102357506752014,0.3877114951610565,0.7031397819519043
034506,0.9375,0.9437255859375,0.5777241587638855,0.7811741828918457
034507,0.4700520932674408,0.4798940122127533,0.3563140034675598,0.6161072254180908
034508,0.518798828125,0.5762351155281067,0.3716495931148529,0.5758664608001709
034509,0.701904296875,0.7039079070091248,0.7402501106262207,0.7431830167770386
034510,0.701904296875,0.7068752646446228,0.5307213068008423,0.5645174384117126
034512,0.5757649540901184,0.5793319940567017,0.5708760023117065,0.7000652551651001
034514,0.0,0.19153761863708496,0.0,0.2828826308250427
034515,0.304931640625,0.304931640625,1.0,1.0
034516,0.34765625,0.3501027524471283,0.5106778144836426,0.5773230791091919
034517,0.962158203125,0.9626364707946777,0.8420895934104919,0.9521309733390808
034518,0.94140625,0.94140625,0.7888506054878235,0.7888506054878235
034519,0.956298828125,0.9598568081855774,1.0,0.9527852535247803
034520,0.951904296875,0.9558190107345581,0.6230928897857666,0.6243813037872314
034524,0.0625,0.1268484890460968,0.09622055292129517,0.24936623871326447
034525,0.518798828125,0.5603297352790833,0.8046129941940308,0.9126631021499634
034526,0.967041015625,0.9672393798828125,0.9284793138504028,0.9672307372093201
034527,0.659423828125,0.662641704082489,0.6764605641365051,0.7822902798652649
034528,0.5694172978401184,0.581080973148346,0.4055802822113037,0.7250441908836365
034532,0.344482421875,0.41664624214172363,0.31885725259780884,0.6000965237617493
034533,0.951171875,0.956002950668335,0.8472716808319092,0.7951788306236267
034534,0.712158203125,0.7124688029289246,0.8569586873054504,0.818022608757019
034536,0.1458333432674408,0.16692709922790527,0.12516115605831146,0.12813670933246613
034538,0.9507649540901184,0.9548609256744385,0.7292529344558716,0.8599646091461182
034539,0.701904296875,0.7058820128440857,0.6066363453865051,0.6260493993759155
034540,0.556884765625,0.5609016418457031,0.8308104276657104,0.7727125287055969
034541,0.9375,0.9471079707145691,0.4692787230014801,0.49218103289604187
034542,0.571533203125,0.5793077349662781,0.49935534596443176,0.6075894832611084
034543,0.510498046875,0.5182614326477051,0.49935534596443176,0.6485556364059448
034544,0.946533203125,0.9523487091064453,0.6577322483062744,0.7689158916473389
034545,0.953369140625,0.9570770859718323,0.912726640701294,0.9830372929573059
034546,0.9673665165901184,0.9678053259849548,0.8748590350151062,0.945946216583252
034547,0.3599446713924408,0.42908185720443726,0.36623337864875793,0.5322920680046082
034550,0.9507649540901184,0.9528883695602417,0.7292529344558716,0.6906630992889404
034553,0.606689453125,0.6251173615455627,0.6509066820144653,0.6079281568527222
034555,0.5694172978401184,0.5809831023216248,0.4055802822113037,0.6418465971946716
034556,0.951904296875,0.9521985650062561,0.7122209072113037,0.6949709057807922
034558,0.393798828125,0.42518994212150574,0.38908666372299194,0.38559743762016296
034559,0.08984375,0.1384429931640625,0.07620275020599365,0.12715581059455872
034562,0.606689453125,0.6459172368049622,0.46666663885116577,0.6849586963653564
034563,0.9673665165901184,0.9678035974502563,0.8748590350151062,0.7897760272026062
034564,0.606689453125,0.627785325050354,0.6509066820144653,0.7337608337402344
034565,0.9673665165901184,0.9675957560539246,0.8748590350151062,0.7420786023139954
034566,0.703369140625,0.7038154602050781,0.6423966884613037,0.6205421090126038
034567,0.0,0.03125,0.0,0.11377041786909103
034570,0.943359375,0.9479723572731018,0.8076295852661133,0.8593713641166687
034573,0.5694172978401184,0.5743279457092285,0.6197949647903442,0.706843376159668
034574,0.9673665165901184,0.967400848865509,1.0,0.9578917622566223
034575,0.962158203125,0.9626994729042053,0.8420895934104919,0.8575954437255859
034577,0.2044270783662796,0.34728729724884033,0.10949836671352386,0.41790539026260376
034578,0.706298828125,0.706298828125,0.871160089969635,0.8246655464172363
034580,0.466064453125,0.5681911110877991,0.25437816977500916,0.5413848161697388
034581,0.712158203125,0.7124596834182739,0.7497180104255676,0.8050686717033386
034582,0.431884765625,0.47932225465774536,0.3415256440639496,0.5996924042701721
034589,0.959228515625,0.9598360061645508,0.7631344795227051,0.9103354215621948
034590,0.706298828125,0.7100656032562256,0.7139173746109009,0.8292326927185059
034594,0.619873046875,0.6263944506645203,0.4733748733997345,0.5463019609451294
034596,0.4700520932674408,0.47961506247520447,0.3117245137691498,0.3616262674331665
034597,0.9507649540901184,0.957714855670929,0.6379934549331665,0.8084906935691833
034600,0.9673665165901184,0.9677361249923706,1.0,0.9226468205451965
034602,0.560546875,0.5865793228149414,0.7653606534004211,0.9258507490158081
034603,0.469970703125,0.4764477610588074,0.4431702494621277,0.4887733459472656
034604,0.47265625,0.5608671307563782,0.4063775837421417,0.6950289607048035
034605,0.943115234375,0.9502536654472351,0.6126077175140381,0.8016210198402405
034607,0.16796875,0.26045989990234375,0.18026001751422882,0.5217763185501099
034609,0.146728515625,0.21339750289916992,0.3333333134651184,0.6067495346069336
034610,0.30078125,0.34884682297706604,0.28309693932533264,0.4592325985431671
034611,0.9466145634651184,0.9466145634651184,0.6615661382675171,0.5322932600975037
034612,0.0,0.1038004606962204,0.0,0.32419031858444214
034613,0.9466145634651184,0.9530526399612427,0.6615661382675171,0.8559402227401733
034616,0.580322265625,0.6099467277526855,0.4040961265563965,0.3503282368183136
034617,0.956298828125,0.9598532319068909,0.7169486284255981,0.7131543159484863
034618,0.61328125,0.6218557953834534,0.4536360800266266,0.6204188466072083
034619,0.5757649540901184,0.582606315612793,0.5708760023117065,0.7480626106262207
034621,0.9673665165901184,0.9676802158355713,0.8748590350151062,0.7627757787704468
034622,0.9668782353401184,0.9676118493080139,0.7810032963752747,0.9243165254592896
034623,0.659423828125,0.6642575263977051,0.5918076038360596,0.8053309321403503
034625,0.633056640625,0.6399808526039124,0.5862115621566772,0.78462153673172
034626,0.47265625,0.4798753261566162,0.3920743465423584,0.47645577788352966
034627,0.967041015625,0.967302143573761,1.0,0.9609854817390442
034628,0.1458333432674408,0.21744339168071747,0.23463937640190125,0.49168601632118225
034630,0.267578125,0.32073330879211426,0.5211794376373291,0.7423070669174194
034631,0.323974609375,0.4118615686893463,0.2550044059753418,0.5622955560684204
034632,0.584228515625,0.584765613079071,0.6245770454406738,0.6921035647392273
034633,0.943115234375,0.9528948068618774,0.6126077175140381,0.8447250723838806
034642,0.5757649540901184,0.5801249146461487,0.49943602085113525,0.49301332235336304
034643,0.968017578125,0.9680494666099548,1.0,0.8402249813079834
034644,0.947998046875,0.9560309052467346,0.5985158681869507,0.8652129173278809
034645,0.706298828125,0.7111206650733948,0.6245770454406738,0.8032992482185364
034646,0.09375,0.1894008368253708,0.1821252405643463,0.4953601658344269
034647,0.2774251401424408,0.34102463722229004,0.8435737490653992,0.9698387384414673
034648,0.300537109375,0.34555959701538086,0.5354781746864319,0.6375926733016968
034649,0.956298828125,0.9592954516410828,1.0,0.8977277278900146
034650,0.9444172978401184,0.9558605551719666,0.544137716293335,0.6007094979286194
034651,0.94140625,0.9496839046478271,0.5900454521179199,0.671412467956543
034652,0.14453125,0.16728858649730682,0.5307213068008423,0.6926153302192688
034653,0.967041015625,0.9675324559211731,0.8122885227203369,0.8661715984344482
034655,0.432373046875,0.4360593557357788,0.5636333227157593,0.6196341514587402
034658,0.962158203125,0.9624765515327454,0.8420895934104919,0.8190386891365051
034659,0.659423828125,0.662919819355011,0.6764605641365051,0.7133755683898926
034660,0.968017578125,0.9680492877960205,1.0,0.8416141271591187
034662,0.9507649540901184,0.9552914500236511,0.6379934549331665,0.6170242428779602
034663,0.568359375,0.5713546872138977,0.5438850522041321,0.5026012063026428
034666,0.966796875,0.9674612879753113,0.7653606534004211,0.7186025381088257
034667,0.939453125,0.940673828125,0.8987017273902893,0.950624942779541
034668,0.95703125,0.9575408697128296,0.8046074509620667,0.8769997358322144
034675,0.703369140625,0.7074794173240662,0.7838867902755737,0.8418324589729309
034676,0.0,0.1648753583431244,0.0,0.371301531791687
034678,0.501953125,0.5062255859375,0.4566117227077484,0.40647971630096436
034680,0.0625,0.13716430962085724,0.15969696640968323,0.48158586025238037
034682,0.3125,0.3125,0.32727500796318054,0.28436988592147827
034683,0.510498046875,0.5177159905433655,0.43686550855636597,0.5955343246459961
034684,0.968017578125,0.9680494070053101,1.0,0.8813868165016174
034685,0.4778645932674408,0.48185572028160095,0.4635950028896332,0.5317394137382507
034686,0.61328125,0.6146408319473267,0.6327316761016846,0.6093742251396179
034688,0.703369140625,0.7036241888999939,0.7838867902755737,0.7439312934875488
034690,0.47265625,0.512646496295929,0.6580725908279419,0.7888193726539612
034692,0.947998046875,0.9548681378364563,0.6841284036636353,0.8093112707138062
034693,0.943115234375,0.9434458613395691,0.819014847278595,0.686634361743927
034695,0.951171875,0.9598345756530762,0.6074502468109131,0.7333469390869141
034696,0.951904296875,0.9539334177970886,0.6230928897857666,0.5386412143707275
034697,0.9673665165901184,0.9673665165901184,1.0,1.0
034698,0.47265625,0.5465337038040161,0.4063775837421417,0.6877502799034119
034700,0.556884765625,0.580870509147644,0.5407800078392029,0.5780420303344727
034701,0.706298828125,0.7111654281616211,0.6245770454406738,0.8551273345947266
034702,0.0,0.012500000186264515,0.0,0.09364787489175797
034703,0.967041015625,0.9677327871322632,0.8122885227203369,0.8195633292198181
034704,0.9507649540901184,0.9507649540901184,0.974961519241333,0.974961519241333
034707,0.959228515625,0.9595244526863098,0.8722942471504211,0.9013197422027588
034708,0.943115234375,0.9505574107170105,0.7475366592407227,0.8306080102920532
034711,0.9388020634651184,0.9475539326667786,0.6763683557510376,0.8510445952415466
034714,0.5757649540901184,0.582671046257019,0.5708760023117065,0.7333374619483948
034715,0.967041015625,0.967207670211792,0.9284793138504028,0.8252894878387451
034716,0.966796875,0.966796875,0.7653606534004211,0.5261971950531006
034719,0.0,0.0331333726644516,0.0,0.07563276588916779
034720,0.95703125,0.9578018188476562,0.7039180397987366,0.7621319890022278
