qid,err@3,err@10,ndcg@3,ndcg@10
032047,0.4375,0.4633544981479645,0.7452524900436401,0.9067344069480896
032049,0.9507649540901184,0.9532643556594849,0.8898733854293823,0.9105865955352783
032053,0.197998046875,0.29080909490585327,0.13742950558662415,0.3244285583496094
032054,0.61328125,0.6160212755203247,0.6327316761016846,0.6735308170318604
032055,0.9507649540901184,0.957592248916626,0.7292529344558716,0.783015787601471
032057,0.499755859375,0.5837233066558838,0.3358892798423767,0.5193422436714172
032059,0.9673665165901184,0.967904269695282,0.8748590350151062,0.9128291606903076
032061,0.943115234375,0.9514137506484985,0.6126077175140381,0.7097235918045044
032062,0.469970703125,0.4780028462409973,0.4431702494621277,0.586908757686615
032065,0.706298828125,0.709524929523468,0.871160089969635,0.8410043120384216
032067,0.968017578125,0.968048632144928,1.0,0.950851321220398
032070,0.568359375,0.5785594582557678,0.4457148313522339,0.7018824219703674
032071,0.0625,0.1670181304216385,0.04692786931991577,0.17730948328971863
032076,0.940673828125,0.9514721632003784,0.5768473744392395,0.7513269782066345
032078,0.510498046875,0.5165462493896484,0.43686550855636597,0.5518485307693481
032079,0.701171875,0.70281982421875,0.7871269583702087,0.8488978147506714
032083,0.701904296875,0.7098799347877502,0.5307213068008423,0.7437629699707031
032086,0.95703125,0.95721435546875,0.8665862679481506,0.9163487553596497
032088,0.47265625,0.548478364944458,0.3039627969264984,0.6532782316207886
032091,0.951904296875,0.9586847424507141,0.6230928897857666,0.8225677013397217
032094,0.09375,0.2349853515625,0.10290931165218353,0.4636560082435608
032097,0.9375,0.9424193501472473,0.8155369758605957,0.9325876235961914
032099,0.951171875,0.9594253301620483,0.6074502468109131,0.6458529829978943
032105,0.701904296875,0.7055091857910156,0.7402501106262207,0.8417735695838928
032106,0.150390625,0.2218017578125,0.09050162881612778,0.19255542755126953
032108,0.947998046875,0.9546151161193848,0.5985158681869507,0.8423281908035278
032111,0.23828125,0.3964490592479706,0.21514107286930084,0.6128090023994446
032113,0.499755859375,0.499755859375,1.0,1.0
032116,0.951171875,0.9540523290634155,0.8472716808319092,0.8981525897979736
032117,0.3059895932674408,0.3413380980491638,0.625433623790741,0.6434230208396912
032118,0.9668782353401184,0.9674851298332214,0.7810032963752747,0.740312397480011
032125,0.946533203125,0.9503247737884521,0.8026000261306763,0.7516111135482788
032126,0.9673665165901184,0.9679021835327148,0.8748590350151062,0.9387719631195068
032127,0.23828125,0.334736168384552,0.2446610927581787,0.5353245139122009
032128,0.584228515625,0.5846437215805054,0.6245770454406738,0.5870739817619324
032132,0.701171875,0.709663450717926,0.5150786638259888,0.6588985323905945
032133,0.953369140625,0.9602117538452148,0.7479812502861023,0.7698753476142883
032135,0.469970703125,0.4799935519695282,0.4431702494621277,0.7050268054008484
032137,0.4375,0.54296875,0.30545666813850403,0.5586711168289185
032141,0.1875,0.20654296875,0.16310739517211914,0.20965291559696198
032144,0.46875,0.46992188692092896,0.3645033836364746,0.39790329337120056
032145,0.469970703125,0.4740736484527588,0.5924884676933289,0.6904910802841187
032146,0.1458333432674408,0.1458333432674408,0.37262624502182007,0.37262624502182007
032155,0.2122395932674408,0.3227953314781189,0.19284793734550476,0.4792817533016205
032156,0.09375,0.13723143935203552,0.20151513814926147,0.45812755823135376
032161,0.9375,0.9459869265556335,0.5364049673080444,0.7140241861343384
032162,0.09375,0.10009765625,0.35098522901535034,0.40948277711868286
032167,0.08203125,0.29042816162109375,0.07531441003084183,0.4906625747680664
032168,0.197998046875,0.3098387122154236,0.1916866898536682,0.39418360590934753
032169,0.962158203125,0.9623770713806152,0.9625431895256042,0.8275173902511597
032170,0.940673828125,0.9519165754318237,0.5768473744392395,0.7580270767211914
032171,0.9668782353401184,0.9677709937095642,0.7810032963752747,0.9498549103736877
032173,0.9375,0.9476255178451538,0.5364049673080444,0.6728584170341492
032174,0.953369140625,0.9602052569389343,0.7479812502861023,0.8354030251502991
032175,0.659423828125,0.6599535346031189,0.8254533410072327,0.7982057332992554
032176,0.46875,0.4771205484867096,0.3384338617324829,0.4161655008792877
032179,0.571533203125,0.5725808143615723,0.6676040887832642,0.613119900226593
032180,0.9375,0.9493575096130371,0.4692787230014801,0.6021366119384766
032182,0.47265625,0.5060409307479858,0.6580725908279419,0.7602276802062988
032184,0.9673665165901184,0.9674881100654602,1.0,0.9989661574363708
032185,0.966796875,0.966870129108429,0.9422276020050049,0.9163728952407837
032190,0.659423828125,0.6629383563995361,0.6764605641365051,0.7648988962173462
032191,0.510498046875,0.5154256820678711,0.43686550855636597,0.42430946230888367
032193,0.560546875,0.5807342529296875,0.8838695287704468,0.9579893350601196
032196,0.939453125,0.939453125,0.7848228216171265,0.7682109475135803
032199,0.9375,0.9475091099739075,0.5364049673080444,0.7682189345359802
032202,0.39453125,0.39617919921875,0.5697178244590759,0.6314886808395386
032203,0.968017578125,0.9680558443069458,1.0,0.9544610977172852
032204,0.560546875,0.5973785519599915,0.7653606534004211,0.9655254483222961
032205,0.505615234375,0.5138655304908752,0.37429502606391907,0.49886587262153625
032206,0.94140625,0.9490801095962524,0.5162065625190735,0.6775810122489929
032214,0.9388020634651184,0.9395344853401184,0.7782489061355591,0.7807887196540833
032215,0.2774251401424408,0.33375439047813416,0.5188971757888794,0.7484018802642822
032216,0.48828125,0.48921552300453186,0.5307213068008423,0.7413594722747803
032217,0.150390625,0.1741943359375,0.2783457934856415,0.36600205302238464
032218,0.455078125,0.5371813178062439,0.36482810974121094,0.6406062245368958
032221,0.46875,0.4704241156578064,0.4524630308151245,0.4711677134037018
032223,0.9507649540901184,0.9545214772224426,0.7292529344558716,0.8613824248313904
032225,0.47265625,0.4869384765625,0.8178747296333313,0.9206981062889099
032226,0.967041015625,0.9676125049591064,0.8122885227203369,0.9175440073013306
032227,0.962158203125,0.9626998901367188,0.8420895934104919,0.8328406810760498
032228,0.951171875,0.9575304388999939,0.8472716808319092,0.9257434606552124
032231,0.19921875,0.24845123291015625,0.3776274025440216,0.6126236319541931
032234,0.46875,0.47991684079170227,0.3384338617324829,0.6096336841583252
032236,0.956298828125,0.9609447121620178,0.8195018768310547,0.9365812540054321
032237,0.1875,0.3460056781768799,0.09385573863983154,0.47064971923828125
032240,0.951904296875,0.9585821032524109,0.7122209072113037,0.8249243497848511
032241,0.966796875,0.9673064947128296,0.8748388290405273,0.9789193272590637
032242,0.21875,0.2485700398683548,0.42495885491371155,0.5991730690002441
032245,0.568359375,0.5804872512817383,0.4457148313522339,0.7276419997215271
032248,0.943115234375,0.948520302772522,0.819014847278595,0.8468976020812988
032250,0.706298828125,0.7094990015029907,0.6245770454406738,0.623867392539978
032254,0.08203125,0.12322998046875,0.3631143569946289,0.6758840680122375
032258,0.962158203125,0.962563693523407,0.8420895934104919,0.9318969249725342
032260,0.951171875,0.9524902105331421,0.9282863140106201,0.9837716221809387
032261,0.1458333432674408,0.26790282130241394,0.12516115605831146,0.3730122745037079
032262,0.9466145634651184,0.9512013792991638,0.8072783350944519,0.9366651773452759
032265,0.659423828125,0.6642696857452393,0.5918076038360596,0.7972066402435303
032266,0.584228515625,0.5848975777626038,0.6245770454406738,0.7868400812149048
032267,0.701171875,0.7098321318626404,0.5150786638259888,0.7024514675140381
032268,0.957763671875,0.9582414627075195,0.7236568927764893,0.6659616231918335
032270,0.701904296875,0.7052124738693237,0.7402501106262207,0.7566869854927063
032273,0.3125,0.3149065375328064,0.40776848793029785,0.47291791439056396
032275,0.968017578125,0.9680771231651306,1.0,0.9599498510360718
032276,0.966796875,0.9670557379722595,0.8748388290405273,0.8578658103942871
032279,0.9444172978401184,0.9556905627250671,0.6219719052314758,0.7625828981399536
032280,0.953369140625,0.9552729725837708,1.0,0.9730739593505859
032281,0.46875,0.4716796875,0.5145465135574341,0.5847930312156677
032282,0.09375,0.2574129104614258,0.05921638384461403,0.3964413106441498
032283,0.571533203125,0.5734168887138367,0.5378206372261047,0.5388759970664978
032284,0.959228515625,0.9594488739967346,0.8722942471504211,0.873787522315979
032285,0.962158203125,0.9624927639961243,0.8420895934104919,0.8575061559677124
032286,0.23828125,0.31435394287109375,0.21514107286930084,0.3483428955078125
032288,0.956298828125,0.9595319628715515,0.8195018768310547,0.8070544600486755
032289,0.659423828125,0.6634477972984314,0.5918076038360596,0.7108765840530396
032292,0.490234375,0.5232620239257812,0.8556691408157349,0.9630820751190186
032293,0.520263671875,0.5208223462104797,0.6423966884613037,0.6768471002578735
032299,0.953369140625,0.9602805376052856,0.6543781161308289,0.8134931325912476
032305,0.556884765625,0.5989335775375366,0.4431702494621277,0.6160369515419006
032307,0.939453125,0.9533742666244507,0.489017516374588,0.6225579977035522
032309,0.967041015625,0.9677339196205139,0.8122885227203369,0.8935449123382568
032313,0.967041015625,0.9674597382545471,0.9284793138504028,0.8395265936851501
032314,0.30078125,0.3216381072998047,0.6128985285758972,0.7147064208984375
032316,0.9375,0.9489931464195251,0.4692787230014801,0.7282322645187378
032319,0.95703125,0.95721435546875,0.7039180397987366,0.7071946859359741
032322,0.943359375,0.9543700218200684,0.5284951329231262,0.6443542838096619
032323,0.703369140625,0.7101197242736816,0.6423966884613037,0.6727407574653625
032324,0.560546875,0.6025387048721313,0.4082580804824829,0.5385640859603882
032327,0.5694172978401184,0.5694172978401184,0.7453632354736328,0.7453632354736328
032328,0.943359375,0.946136474609375,0.6040917634963989,0.548496663570404
032330,0.957763671875,0.9582092761993408,0.7236568927764893,0.6053553223609924
032331,0.9375,0.9375,0.7171369194984436,0.6418733596801758
032334,0.9507649540901184,0.9564555287361145,0.7292529344558716,0.9037061929702759
032337,0.48828125,0.4886845648288727,0.5307213068008423,0.5060408115386963
032339,0.967041015625,0.9675241708755493,0.8122885227203369,0.793319582939148
032342,0.0625,0.2503833770751953,0.05436912924051285,0.4803161919116974
032343,0.4375,0.5064907073974609,0.4692787528038025,0.6496986746788025
032347,0.0,0.189453125,0.0,0.25363442301750183
032348,0.659423828125,0.6604512333869934,0.8254533410072327,0.8333920240402222
032349,0.9668782353401184,0.9675074219703674,0.7810032963752747,0.8536533117294312
032351,0.968017578125,0.9680777192115784,1.0,0.9510079026222229
032353,0.9673665165901184,0.9676715731620789,0.8748590350151062,0.9079891443252563
032356,0.9507649540901184,0.957673192024231,0.7292529344558716,0.9234843850135803
032357,0.9375,0.9424867630004883,0.6545500159263611,0.7125401496887207
032360,0.659423828125,0.6620516180992126,0.8254533410072327,0.8283933401107788
032361,0.701171875,0.70941162109375,0.5887562036514282,0.8197731971740723
032363,0.263671875,0.4251447319984436,0.15307211875915527,0.44138726592063904
032364,0.701171875,0.7014857530593872,0.7184317708015442,0.7194564342498779
032368,0.962158203125,0.9625850319862366,0.8420895934104919,0.7215471863746643
032369,0.47265625,0.4772481620311737,0.4784300625324249,0.4284907281398773
032371,0.501953125,0.5085266828536987,0.4030183255672455,0.5872243642807007
032372,0.560546875,0.59515380859375,0.7653606534004211,0.8308574557304382
032373,0.943115234375,0.9519463181495667,0.5359453558921814,0.7304516434669495
032374,0.951904296875,0.958446204662323,0.7122209072113037,0.866269052028656
032376,0.962158203125,0.9624419808387756,0.8420895934104919,0.7746860980987549
032377,0.9375,0.9456222653388977,0.4692787230014801,0.4747875928878784
032378,0.23828125,0.24859619140625,0.8344475626945496,0.9143090844154358
032379,0.706298828125,0.7110874056816101,0.6245770454406738,0.799458384513855
032380,0.619873046875,0.6249281167984009,0.5410870313644409,0.6979156732559204
032383,0.3599446713924408,0.4174494743347168,0.5626510977745056,0.8060696721076965
032387,0.5757649540901184,0.5785544514656067,0.6966133713722229,0.7425604462623596
032388,0.0,0.0,0.0,0.0
032389,0.3059895932674408,0.36498188972473145,0.2836383283138275,0.4949345588684082
032390,0.508056640625,0.5107345581054688,0.46666663885116577,0.45745933055877686
032391,0.968017578125,0.968059778213501,1.0,0.9874728322029114
032393,0.701171875,0.7081161737442017,0.5887562036514282,0.8099205493927002
032394,0.3599446713924408,0.4505120515823364,0.26257050037384033,0.5681271553039551
032400,0.967041015625,0.9674078226089478,0.9284793138504028,0.8878062963485718
032401,0.166259765625,0.2673971951007843,0.12132726609706879,0.3595132827758789
032402,0.703369140625,0.7091032266616821,0.5620065331459045,0.7477658987045288
032403,0.956298828125,0.9589730501174927,1.0,1.0
032404,0.3599446713924408,0.40686336159706116,0.36623337864875793,0.6137596964836121
032405,0.633056640625,0.638542115688324,0.5862115621566772,0.7862088084220886
032406,0.261474609375,0.261474609375,0.6806060075759888,0.6806060075759888
032408,0.959228515625,0.9595664739608765,0.8722942471504211,0.8181535601615906
032409,0.956298828125,0.9575908780097961,1.0,0.9143620729446411
032410,0.968017578125,0.968017578125,1.0,1.0
032413,0.344482421875,0.4054402709007263,0.2789551615715027,0.6130704283714294
032416,0.110107421875,0.2149227410554886,0.07620275020599365,0.20284049212932587
032418,0.706298828125,0.706298828125,0.871160089969635,0.7368999123573303
032419,0.505615234375,0.5068904161453247,0.5719858407974243,0.5167694687843323
032421,0.03125,0.23511219024658203,0.02753167226910591,0.4930896461009979
032422,0.508056640625,0.5118252635002136,0.46666663885116577,0.4837658405303955
032423,0.560546875,0.6099853515625,0.4981783330440521,0.7313337326049805
032425,0.150390625,0.3149925470352173,0.13830174505710602,0.5693078637123108
032426,0.9507649540901184,0.9576056003570557,0.6379934549331665,0.7138484716415405
032427,0.48828125,0.48888617753982544,0.6066363453865051,0.703451931476593
032428,0.571533203125,0.5766100883483887,0.49935534596443176,0.6031046509742737
032429,0.701904296875,0.706367552280426,0.6066363453865051,0.6112616658210754
032430,0.606689453125,0.6272975206375122,1.0,0.8883907794952393
032431,0.4375,0.478515625,0.5874204039573669,0.796663761138916
032433,0.560546875,0.6011675000190735,0.4981783330440521,0.5853216052055359
032434,0.659423828125,0.6642769575119019,0.5918076038360596,0.68367600440979
032436,0.510498046875,0.5159654021263123,0.43686550855636597,0.49546897411346436
032437,0.95703125,0.957831859588623,0.7039180397987366,0.8190214037895203
032439,0.490234375,0.59735107421875,0.42515653371810913,0.734010636806488
032442,0.9375,0.9477370977401733,0.5364049673080444,0.6060293316841125
032443,0.712158203125,0.7126900553703308,0.7497180104255676,0.7720035314559937
032445,0.393798828125,0.393798828125,0.38908666372299194,0.31663259863853455
032446,0.531982421875,0.6041017770767212,0.3482339084148407,0.6898683309555054
032448,0.0,0.012500000186264515,0.0,0.05669447407126427
032450,0.94140625,0.9516940712928772,0.5900454521179199,0.8221036195755005
032451,0.951904296875,0.9599963426589966,0.6230928897857666,0.8518959879875183
032452,0.584228515625,0.5849989652633667,0.6245770454406738,0.6977145671844482
032453,0.0,0.13461169600486755,0.0,0.44036665558815
032454,0.46875,0.4755401611328125,0.3384338617324829,0.4556138217449188
032460,0.712158203125,0.7124302387237549,0.8569586873054504,0.8729877471923828
032461,0.701171875,0.7044677734375,0.5887562036514282,0.7438119649887085
032462,0.490234375,0.5619005560874939,0.42515653371810913,0.6824895739555359
032465,0.959228515625,0.9597455263137817,0.7631344795227051,0.8577325344085693
032468,0.2774251401424408,0.28709539771080017,1.0,1.0
032473,0.490234375,0.5429000854492188,0.6884825229644775,0.8929444551467896
032474,0.9673665165901184,0.9678020477294922,0.8748590350151062,0.7465331554412842
032475,0.580322265625,0.6209214329719543,0.5636333227157593,0.5863541960716248
032484,0.432373046875,0.43954548239707947,0.4618985950946808,0.6532282829284668
032485,0.501953125,0.50469970703125,0.6016255021095276,0.6759108901023865
032486,0.943115234375,0.9467973709106445,0.7475366592407227,0.70563143491745
032487,0.9375,0.9375,0.4692787230014801,0.4630398154258728
032489,0.712158203125,0.7125701904296875,0.7497180104255676,0.8236680626869202
032490,0.95703125,0.957841694355011,0.7039180397987366,0.8299645781517029
032491,0.701904296875,0.7055017352104187,0.7402501106262207,0.6833530068397522
032498,0.9668782353401184,0.9673447608947754,0.7810032963752747,0.6859657168388367
032499,0.951904296875,0.9599016308784485,0.6230928897857666,0.7135549187660217
032500,0.0,0.19608458876609802,0.0,0.3901638686656952
032502,0.9673665165901184,0.9676441550254822,1.0,0.8892462849617004
032504,0.956298828125,0.9611399173736572,0.7169486284255981,0.8961909413337708
032509,0.3125,0.3234945833683014,0.23463936150074005,0.5325416922569275
032510,0.943115234375,0.9516180157661438,0.6126077175140381,0.8307154774665833
032511,0.703369140625,0.7091503739356995,0.6423966884613037,0.753639817237854
032512,0.300537109375,0.3849610388278961,0.2163846641778946,0.6299524903297424
032513,0.956298828125,0.9602459669113159,0.7169486284255981,0.8308984041213989
032514,0.9668782353401184,0.9675283432006836,0.7810032963752747,0.8091916441917419
032515,0.3125,0.3155381977558136,0.2682024836540222,0.3101232647895813
032516,0.968017578125,0.9680493474006653,1.0,0.7064142823219299
032520,0.619873046875,0.6277880668640137,0.5410870313644409,0.7657980918884277
032522,0.962158203125,0.9624234437942505,0.9625431895256042,0.8860171437263489
032523,0.393798828125,0.4703610837459564,0.31885725259780884,0.6271203756332397
032524,0.947998046875,0.9514307379722595,0.5985158681869507,0.5655593872070312
032526,0.712158203125,0.7125411629676819,0.7497180104255676,0.7787952423095703
032528,0.967041015625,0.967477560043335,0.9284793138504028,0.9660007953643799
032529,0.510498046875,0.5158916711807251,0.43686550855636597,0.6063891053199768
032530,0.39453125,0.4013901352882385,0.37281090021133423,0.6074951887130737
032531,0.951171875,0.95501708984375,0.694340705871582,0.607488751411438
032532,0.4375,0.5307700037956238,0.33466389775276184,0.6530671119689941
032533,0.966796875,0.967254638671875,0.7653606534004211,0.8227643370628357
032535,0.962158203125,0.9625189304351807,0.8420895934104919,0.8909109234809875
032536,0.09375,0.2465471476316452,0.10882609337568283,0.4616231918334961
032537,0.510498046875,0.5176277756690979,0.43686550855636597,0.5690081715583801
032538,0.09375,0.12770995497703552,0.29608193039894104,0.44251003861427307
032539,0.9466145634651184,0.9490196704864502,0.5787770748138428,0.478225439786911
032540,0.966796875,0.9672564268112183,0.8748388290405273,0.8031019568443298
032541,0.712158203125,0.7123943567276001,0.8569586873054504,0.8048425316810608
032542,0.431884765625,0.4932996928691864,0.390377938747406,0.5101981163024902
032543,0.968017578125,0.9680564999580383,1.0,0.8937444686889648
032544,0.9375,0.9462699294090271,0.4692787230014801,0.5965233445167542
032548,0.951904296875,0.9544098377227783,0.9521908760070801,0.9670687913894653
032553,0.968017578125,0.968076229095459,1.0,0.9028304815292358
032554,0.962158203125,0.9624762535095215,0.9625431895256042,0.824001133441925
032555,0.0625,0.0625,0.08155369758605957,0.07195839285850525
032556,0.490234375,0.4959472715854645,0.8556691408157349,0.7687122225761414
032557,0.94140625,0.949968695640564,0.7200049757957458,0.909153401851654
032558,0.9375,0.952691376209259,0.4692787230014801,0.7363705635070801
032560,0.09375,0.09375,0.29608193039894104,0.29608193039894104
032561,0.633056640625,0.6383121013641357,0.715326726436615,0.8107537627220154
032565,0.393798828125,0.4684129059314728,0.31885725259780884,0.6921135783195496
032566,0.584228515625,0.5849969983100891,0.6245770454406738,0.7530990839004517
032568,0.9375,0.9474121332168579,0.5364049673080444,0.5386444926261902
032573,0.943359375,0.9529293179512024,0.5284951329231262,0.6451391577720642
032574,0.939453125,0.9438877105712891,0.6820816993713379,0.667100191116333
032576,0.490234375,0.5512838959693909,0.38805168867111206,0.585157573223114
032577,0.951171875,0.9566315412521362,0.8472716808319092,0.8102714419364929
032579,0.968017578125,0.9680769443511963,1.0,0.9436863660812378
032580,0.9466145634651184,0.955144464969635,0.5787770748138428,0.7285270094871521
032581,0.580322265625,0.6184068918228149,0.5636333227157593,0.6158726811408997
032582,0.968017578125,0.9680570960044861,1.0,0.8896527290344238
032583,0.5757649540901184,0.581240177154541,0.5708760023117065,0.639371931552887
032585,0.374755859375,0.4522043466567993,0.24766992032527924,0.5229412317276001
032586,0.9673665165901184,0.9677310585975647,1.0,0.9894636273384094
032589,0.9507649540901184,0.9552302360534668,0.7292529344558716,0.8685963153839111
032593,0.560546875,0.6073945760726929,0.4981783330440521,0.6678616404533386
032596,0.966796875,0.9674392938613892,0.7653606534004211,0.8487729430198669
032598,0.0,0.0,0.0,0.0
032602,0.951171875,0.9530181884765625,0.8472716808319092,0.7488917112350464
032604,0.9673665165901184,0.9674489498138428,1.0,0.9575220942497253
032606,0.659423828125,0.664130449295044,0.6764605641365051,0.787217915058136
032608,0.967041015625,0.9675779342651367,0.8122885227203369,0.7819533348083496
032609,0.9466145634651184,0.9482625126838684,0.8072783350944519,0.739307165145874
032610,0.455078125,0.455078125,0.5907889604568481,0.5556217432022095
032613,0.3059895932674408,0.39921656250953674,0.2836383283138275,0.5759004950523376
032616,0.953369140625,0.9603071212768555,0.6543781161308289,0.797427237033844
032617,0.962158203125,0.9624766111373901,0.8420895934104919,0.8219447135925293
032619,0.3059895932674408,0.4170442521572113,0.23244215548038483,0.5162830352783203
032620,0.706298828125,0.7111051678657532,0.7139173746109009,0.8504762053489685
032621,0.9507649540901184,0.9559921622276306,0.6379934549331665,0.7475189566612244
032622,0.365234375,0.41636353731155396,0.3236317038536072,0.44323450326919556
032623,0.571533203125,0.5799596905708313,0.49935534596443176,0.6627844572067261
032624,0.571533203125,0.5785664916038513,0.6093400716781616,0.7004647850990295
032626,0.701171875,0.701171875,0.7871269583702087,0.7871269583702087
032627,0.2774251401424408,0.3627161979675293,0.257824569940567,0.590811550617218
032628,0.3125,0.3245655298233032,0.23463936150074005,0.43282851576805115
032629,0.510498046875,0.5156701803207397,0.6093400716781616,0.6577551960945129
032630,0.501953125,0.5107693672180176,0.4566117227077484,0.648358166217804
032631,0.47265625,0.47265625,0.5961002111434937,0.5569746494293213
032632,0.490234375,0.5264623761177063,0.38805168867111206,0.39898744225502014
032633,0.951904296875,0.9531402587890625,0.7122209072113037,0.6006811857223511
032634,0.518798828125,0.5881246328353882,0.3716495931148529,0.5812833309173584
032636,0.956298828125,0.9596487283706665,0.7169486284255981,0.6589502096176147
032639,0.943359375,0.9499847292900085,0.8076295852661133,0.9324063062667847
032640,0.14453125,0.15484619140625,0.6291344165802002,0.7089959383010864
032642,0.703369140625,0.7088613510131836,0.6423966884613037,0.7400238513946533
032643,0.606689453125,0.6350393295288086,0.5334192514419556,0.6015805006027222
032645,0.951171875,0.9583187103271484,0.694340705871582,0.8485348224639893
032646,0.9388020634651184,0.9437945485115051,0.6763683557510376,0.7355373501777649
032647,0.633056640625,0.6378601789474487,0.5862115621566772,0.6889461278915405
032648,0.9507649540901184,0.954207718372345,0.8898733854293823,0.8368793725967407
032649,0.951904296875,0.9565072655677795,0.7122209072113037,0.7347831130027771
032650,0.967041015625,0.9675349593162537,0.8122885227203369,0.8980897068977356
032652,0.304931640625,0.3813104033470154,0.20000000298023224,0.4570128917694092
032653,0.962158203125,0.962158203125,0.8420895934104919,0.5789495706558228
032654,0.606689453125,0.6271991729736328,0.6509066820144653,0.7148280143737793
032655,0.947998046875,0.9523147344589233,0.8348100185394287,0.7891430854797363
032656,0.51953125,0.5402036309242249,0.8129132390022278,0.8658987283706665
032658,0.431884765625,0.4942951798439026,0.4763599932193756,0.7305482029914856
032660,0.560546875,0.6063469648361206,0.7653606534004211,0.9591991901397705
032661,0.4375,0.4375,0.2503223121166229,0.19771736860275269
032662,0.703369140625,0.7068281173706055,0.7838867902755737,0.7503928542137146
032664,0.706298828125,0.7084269523620605,0.7139173746109009,0.6799362897872925
032666,0.956298828125,0.9602500796318054,0.7169486284255981,0.8466492891311646
032667,0.939453125,0.9485703110694885,0.489017516374588,0.5237080454826355
032669,0.606689453125,0.6484031677246094,0.6509066820144653,0.7788053154945374
032670,0.560546875,0.63470458984375,0.4981783330440521,0.6512914896011353
032671,0.9375,0.9404296875,0.7171369194984436,0.7789077758789062
032674,0.9507649540901184,0.956602156162262,0.6379934549331665,0.8384919166564941
032676,0.0,0.1394500732421875,0.0,0.42301785945892334
032677,0.5757649540901184,0.5813291668891907,0.49943602085113525,0.5713770389556885
032678,0.0625,0.14430542290210724,0.14433082938194275,0.4269801080226898
032679,0.959228515625,0.9594697952270508,0.8722942471504211,0.7774659395217896
032683,0.967041015625,0.9672381281852722,0.9284793138504028,0.8932199478149414
032684,0.61328125,0.6183286905288696,0.5185247659683228,0.6762228012084961
032685,0.957763671875,0.9586340188980103,0.7236568927764893,0.7113650441169739
032688,0.431884765625,0.45353615283966064,0.8451594114303589,0.8546991348266602
032689,0.505615234375,0.5142080783843994,0.4607907235622406,0.6626640558242798
032690,0.951904296875,0.9567434787750244,0.8690900206565857,0.8999384641647339
032692,0.9673665165901184,0.9677317142486572,0.8748590350151062,0.8291444182395935
032693,0.469970703125,0.4749176800251007,0.5407800078392029,0.5906901359558105
032697,0.966796875,0.9674816131591797,0.7653606534004211,0.8311295509338379
032698,0.432373046875,0.4367818534374237,0.4618985950946808,0.51393061876297
032699,0.508056640625,0.511798620223999,0.5334192514419556,0.5457607507705688
032701,0.712158203125,0.7125479578971863,0.7497180104255676,0.8052678108215332
032702,0.967041015625,0.9678104519844055,0.8122885227203369,0.9428783655166626
032703,0.431884765625,0.48156222701072693,0.4763599932193756,0.7081976532936096
032705,0.962158203125,0.9625541567802429,0.8420895934104919,0.7742451429367065
032706,0.95703125,0.9577778577804565,0.7039180397987366,0.7269641160964966
032708,0.953369140625,0.9604146480560303,0.6543781161308289,0.8935300707817078
032710,0.968017578125,0.96805340051651,1.0,0.8475826382637024
032711,0.962158203125,0.9626935124397278,0.8420895934104919,0.9122676849365234
032712,0.9673665165901184,0.9676172733306885,0.8748590350151062,0.7536267638206482
032713,0.967041015625,0.9675905704498291,0.8122885227203369,0.7925719022750854
032714,0.951171875,0.9537460207939148,0.694340705871582,0.639366626739502
032717,0.966796875,0.9672686457633972,0.8748388290405273,0.7734794616699219
032720,0.946533203125,0.950836181640625,1.0,0.9203339219093323
032721,0.946533203125,0.9527395367622375,0.6577322483062744,0.754009485244751
032722,0.0625,0.2626913785934448,0.053640495985746384,0.44298943877220154
032723,0.951904296875,0.9591267108917236,0.6230928897857666,0.8271738886833191
032724,0.9673665165901184,0.9676262736320496,1.0,0.921822726726532
032725,0.959228515625,0.9597986936569214,0.8722942471504211,0.9000381231307983
032726,0.967041015625,0.9677934646606445,0.8122885227203369,0.9566404819488525
032727,0.962158203125,0.9625217914581299,0.8420895934104919,0.8910114765167236
032728,0.9668782353401184,0.9674680829048157,0.892719030380249,0.9353694319725037
032729,0.967041015625,0.9675569534301758,0.9284793138504028,0.9449652433395386
032730,0.959228515625,0.9597644209861755,0.7631344795227051,0.892480194568634
032731,0.9507649540901184,0.9576978087425232,0.6379934549331665,0.7818876504898071
032733,0.488037109375,0.551488995552063,0.6121358871459961,0.7711758017539978
032735,0.947998046875,0.9545531868934631,0.5985158681869507,0.7952280044555664
032736,0.967041015625,0.9673696160316467,0.9284793138504028,0.7721580266952515
032737,0.520263671875,0.5207757353782654,0.6423966884613037,0.6115259528160095
032738,0.490234375,0.5788683295249939,0.3180091083049774,0.49878889322280884
032740,0.939453125,0.9489200711250305,0.5589672327041626,0.6168492436408997
032741,0.9388020634651184,0.9528348445892334,0.5542851090431213,0.7419448494911194
032743,0.959228515625,0.9598301649093628,0.7631344795227051,0.899013340473175
032744,0.46875,0.48386791348457336,0.29608190059661865,0.5235133767127991
032745,0.9668782353401184,0.9673838019371033,0.7810032963752747,0.7175530195236206
032748,0.957763671875,0.9584972262382507,0.7236568927764893,0.8186642527580261
032749,0.953369140625,0.9577760696411133,0.6543781161308289,0.606561005115509
032751,0.9507649540901184,0.9554083347320557,0.6379934549331665,0.6605720520019531
032752,0.966796875,0.9670807719230652,0.8748388290405273,0.8508234024047852
032754,0.967041015625,0.9676756262779236,0.8122885227203369,0.9091920256614685
032758,0.9507649540901184,0.9524961709976196,0.7292529344558716,0.7031456232070923
032759,0.962158203125,0.9626381397247314,0.8420895934104919,0.9168179035186768
032760,0.19921875,0.2949429750442505,0.19636499881744385,0.5330058932304382
032761,0.9668782353401184,0.9676786065101624,0.7810032963752747,0.8750741481781006
032762,0.9444172978401184,0.9558929204940796,0.6219719052314758,0.7610053420066833
032763,0.967041015625,0.9676019549369812,0.9284793138504028,0.8587884306907654
032766,0.946533203125,0.9547622799873352,0.575423002243042,0.7890037298202515
032767,0.951171875,0.956673800945282,0.6074502468109131,0.6677790880203247
032768,0.94140625,0.9537328481674194,0.5162065625190735,0.7249510288238525
032769,0.9375,0.94140625,0.4692787230014801,0.37282422184944153
032770,0.959228515625,0.9599868059158325,0.7631344795227051,0.7678128480911255
032772,0.967041015625,0.9673823118209839,0.8122885227203369,0.7428116798400879
032773,0.947998046875,0.9531726241111755,0.6841284036636353,0.7537378668785095
032774,0.47265625,0.479932963848114,0.3430097699165344,0.41765227913856506
032775,0.9673665165901184,0.9676544070243835,0.8748590350151062,0.7128224968910217
032778,0.939453125,0.948822021484375,0.489017516374588,0.5110304355621338
032782,0.263671875,0.3066563010215759,0.7653606534004211,0.7707939743995667
032784,0.712158203125,0.7126945853233337,0.7497180104255676,0.8853525519371033
032785,0.967041015625,0.9678077697753906,0.8122885227203369,0.8858925700187683
032786,0.531982421875,0.604034960269928,0.39804574847221375,0.6350314021110535
032788,0.374755859375,0.4571368992328644,0.3454500138759613,0.5679109692573547
032790,0.263671875,0.4225868284702301,0.17496776580810547,0.41826319694519043
032791,0.9673665165901184,0.9676764607429504,0.8748590350151062,0.6893386840820312
032793,0.9668782353401184,0.9674203395843506,0.7810032963752747,0.7830232977867126
032797,0.967041015625,0.9674191474914551,0.8122885227203369,0.7178806662559509
032798,0.365234375,0.4271402955055237,0.3236317038536072,0.5039969086647034
032801,0.619873046875,0.627795934677124,0.5410870313644409,0.7059717774391174
032802,0.5757649540901184,0.5798320174217224,0.5708760023117065,0.628186821937561
032803,0.967041015625,0.9677088856697083,0.8122885227203369,0.895844578742981
032806,0.951904296875,0.9570282101631165,0.7122209072113037,0.6592024564743042
032807,0.966796875,0.9675517678260803,0.7653606534004211,0.737690269947052
032808,0.633056640625,0.6398971080780029,0.5862115621566772,0.7190335988998413
032810,0.9507649540901184,0.9561796188354492,0.6379934549331665,0.6839900612831116
032811,0.953369140625,0.9547080993652344,0.7479812502861023,0.5566498637199402
032812,0.959228515625,0.9598137140274048,0.7631344795227051,0.786477267742157
032815,0.3059895932674408,0.4050509035587311,0.2836383283138275,0.5934267640113831
032816,0.712158203125,0.7126373052597046,0.7497180104255676,0.7619638442993164
032817,0.0625,0.1064453125,0.06703981757164001,0.11603344231843948
032818,0.967041015625,0.9676387310028076,0.8122885227203369,0.8857699632644653
032819,0.946533203125,0.9509177207946777,0.8793432712554932,0.8808512687683105
032820,0.9507649540901184,0.9541544914245605,0.8898733854293823,0.9154878854751587
032822,0.9673665165901184,0.9677717089653015,1.0,0.9769048690795898
032823,0.9673665165901184,0.9675350785255432,1.0,0.8152904510498047
032825,0.966796875,0.9673090577125549,0.7653606534004211,0.6524010300636292
032826,0.110107421875,0.2886689007282257,0.09298666566610336,0.47032779455184937
032827,0.9507649540901184,0.9565034508705139,0.6379934549331665,0.8287699222564697
032829,0.580322265625,0.6065172553062439,0.5636333227157593,0.5073878169059753
032830,0.962158203125,0.9626817107200623,0.8420895934104919,0.7336493730545044
032831,0.9507649540901184,0.9566667079925537,0.6379934549331665,0.8645157217979431
032832,0.488037109375,0.5733957290649414,0.4365417957305908,0.7181000709533691
032833,0.9673665165901184,0.9676119685173035,1.0,0.8612494468688965
032834,0.633056640625,0.6371184587478638,0.715326726436615,0.7046251893043518
032836,0.9444172978401184,0.9523928165435791,0.544137716293335,0.6253355741500854
032844,0.962158203125,0.9625866413116455,0.8420895934104919,0.8748610019683838
032845,0.967041015625,0.967650294303894,0.9284793138504028,0.9282357692718506
032846,0.701904296875,0.7081154584884644,0.6066363453865051,0.7341659665107727
032847,0.953369140625,0.9588024020195007,0.6543781161308289,0.7177528738975525
032848,0.659423828125,0.663490355014801,0.6764605641365051,0.8272911906242371
032850,0.712158203125,0.7126885056495667,0.7497180104255676,0.8513933420181274
032851,0.23828125,0.3198946416378021,0.19636499881744385,0.35660165548324585
032858,0.9673665165901184,0.9677675366401672,0.8748590350151062,0.8000481128692627
032859,0.9375,0.9525747895240784,0.4692787230014801,0.6383035182952881
032861,0.967041015625,0.9676870107650757,0.8122885227203369,0.8448343873023987
032863,0.962158203125,0.9622640609741211,0.9625431895256042,0.8612756729125977
032864,0.962158203125,0.9626897573471069,0.8420895934104919,0.9129989743232727
032866,0.946533203125,0.946533203125,1.0,0.9343641400337219
032868,0.95703125,0.957476794719696,0.8046074509620667,0.8178730010986328
032869,0.968017578125,0.9680522084236145,1.0,0.8561364412307739
032872,0.962158203125,0.9626061320304871,0.8420895934104919,0.8581383228302002
032874,0.659423828125,0.6641480922698975,0.6764605641365051,0.7567980289459229
032875,0.571533203125,0.5785866379737854,0.49935534596443176,0.6000803709030151
032876,0.968017578125,0.9680758118629456,1.0,0.9523787498474121
032877,0.393798828125,0.4662683308124542,0.38908666372299194,0.6377722024917603
032879,0.344482421875,0.40283745527267456,0.31885725259780884,0.5552566051483154
032880,0.956298828125,0.960300087928772,0.7169486284255981,0.7702191472053528
032882,0.9673665165901184,0.9676991105079651,1.0,0.9178476333618164
032883,0.580322265625,0.6434205770492554,0.4040961265563965,0.6598881483078003
032884,0.9375,0.9466646313667297,0.4692787230014801,0.5050302743911743
032885,0.968017578125,0.9680569767951965,1.0,0.802631676197052
032886,0.520263671875,0.5209637880325317,0.5620065331459045,0.7270291447639465
032887,0.584228515625,0.5848362445831299,0.6245770454406738,0.7999585270881653
032888,0.9668782353401184,0.9673237800598145,0.892719030380249,0.7784712910652161
032890,0.30078125,0.35211318731307983,0.28309693932533264,0.45636633038520813
032891,0.951171875,0.9595720767974854,0.6074502468109131,0.6425071358680725
032896,0.568359375,0.5764038562774658,0.5438850522041321,0.6320859789848328
032897,0.956298828125,0.9610635638237,0.8195018768310547,0.953905463218689
032898,0.431884765625,0.49459394812583923,0.390377938747406,0.6853362321853638
032899,0.968017578125,0.9680396914482117,1.0,0.8123433589935303
032900,0.712158203125,0.712530791759491,0.7497180104255676,0.700290322303772
032901,0.95703125,0.9574483036994934,0.7039180397987366,0.6190686225891113
032903,0.956298828125,0.9592834711074829,0.8195018768310547,0.7715926766395569
032904,0.9507649540901184,0.9558264017105103,0.7292529344558716,0.8728920221328735
032905,0.946533203125,0.9543023705482483,0.575423002243042,0.7028612494468689
032906,0.956298828125,0.9596843123435974,1.0,0.9909790754318237
032907,0.701171875,0.7095637917518616,0.5887562036514282,0.7201683521270752
032910,0.9673665165901184,0.9677190780639648,1.0,0.9691917896270752
032911,0.0,0.0,0.0,0.0
032914,0.5694172978401184,0.5809895396232605,0.4055802822113037,0.6007177829742432
032915,0.947998046875,0.9561217427253723,0.5985158681869507,0.8505276441574097
032917,0.9673665165901184,0.9678145051002502,0.8748590350151062,0.9318455457687378
032920,0.701904296875,0.7068621516227722,0.6066363453865051,0.631536066532135
032922,0.9444172978401184,0.9515182375907898,0.6219719052314758,0.6672303676605225
032925,0.9507649540901184,0.9555339813232422,0.7292529344558716,0.7524449825286865
032926,0.703369140625,0.7085957527160645,0.5620065331459045,0.6932902336120605
032927,0.703369140625,0.7103098034858704,0.5620065331459045,0.6640487909317017
032929,0.146728515625,0.19319108128547668,0.48975956439971924,0.707526445388794
032933,0.501953125,0.5148370862007141,0.3273671567440033,0.6292586922645569
032934,0.94140625,0.9524750113487244,0.5900454521179199,0.7280637621879578
032935,0.9507649540901184,0.9542479515075684,0.7292529344558716,0.6579888463020325
032938,0.1875,0.2239990234375,0.10728099197149277,0.1091265007853508
032939,0.946533203125,0.9546068906784058,0.6577322483062744,0.8812899589538574
032942,0.9375,0.939453125,0.8879528045654297,0.9512118697166443
032943,0.968017578125,0.9680656790733337,1.0,0.9143162369728088
032944,0.567138671875,0.6214375495910645,0.5199966430664062,0.7160884141921997
032947,0.966796875,0.9670507311820984,0.8748388290405273,0.9490206837654114
032949,0.946533203125,0.9542311429977417,0.6577322483062744,0.8171815872192383
032950,0.9673665165901184,0.9677167534828186,1.0,0.8878408670425415
032952,0.263671875,0.29461669921875,0.7653606534004211,0.8048099875450134
032954,0.959228515625,0.9597217440605164,0.8722942471504211,0.8443777561187744
032956,0.956298828125,0.9579401016235352,1.0,0.8947943449020386
032958,0.9673665165901184,0.9676945209503174,1.0,0.9700926542282104
032959,0.94140625,0.9514504671096802,0.5162065625190735,0.7086488008499146
032960,0.968017578125,0.9680609703063965,1.0,0.8859119415283203
032961,0.567138671875,0.5986170768737793,0.7988805174827576,0.8695001006126404
032964,0.197998046875,0.3031083941459656,0.34009110927581787,0.6253899931907654
032965,0.09375,0.1064453125,0.35098522901535034,0.4308467507362366
032966,0.39453125,0.40294018387794495,0.37281090021133423,0.4930754601955414
032968,0.939453125,0.9450704455375671,0.489017516374588,0.41490575671195984
032969,0.956298828125,0.9601470232009888,0.8195018768310547,0.8799728155136108
032971,0.48828125,0.48886001110076904,0.6066363453865051,0.6359403133392334
032972,0.51953125,0.5558196306228638,0.45818498730659485,0.46993309259414673
032973,0.499755859375,0.5704779624938965,0.629690945148468,0.7422952651977539
032974,0.580322265625,0.6330169439315796,0.5636333227157593,0.8015004992485046
032975,0.968017578125,0.9680617451667786,1.0,0.9664040803909302
032977,0.9673665165901184,0.9676487445831299,0.8748590350151062,0.9051070213317871
032978,0.633056640625,0.6367225050926208,0.5862115621566772,0.5405146479606628
032980,0.263671875,0.2783706784248352,0.90728360414505,0.9677826762199402
032982,0.4778645932674408,0.48641642928123474,0.4055802822113037,0.5826890468597412
032983,0.962158203125,0.9625756144523621,0.8420895934104919,0.7299872040748596
032984,0.584228515625,0.5850010514259338,0.6245770454406738,0.6656317710876465
032985,0.94140625,0.943310558795929,0.5162065625190735,0.379862517118454
032986,0.08984375,0.107696533203125,0.3951442539691925,0.5706368684768677
032987,0.962158203125,0.9625329971313477,0.8420895934104919,0.8719927668571472
032989,0.967041015625,0.9676238298416138,0.8122885227203369,0.9104854464530945
032990,0.9668782353401184,0.9677523374557495,0.7810032963752747,0.8898162245750427
032993,0.956298828125,0.9587697386741638,1.0,0.9191752672195435
032994,0.968017578125,0.9680608510971069,1.0,0.9232237339019775
032996,0.95703125,0.9577243328094482,0.8046074509620667,0.8180370926856995
032997,0.9668782353401184,0.9677801132202148,0.7810032963752747,0.8219307065010071
033000,0.9507649540901184,0.9554945230484009,0.7292529344558716,0.8153434991836548
033004,0.956298828125,0.9610839486122131,0.8195018768310547,0.9244956374168396
033005,0.9673665165901184,0.9676427245140076,0.8748590350151062,0.7305651903152466
033006,0.712158203125,0.712601363658905,0.7497180104255676,0.8585408329963684
033007,0.374755859375,0.48025116324424744,0.28309693932533264,0.5845988392829895
033012,0.571533203125,0.581500768661499,0.49935534596443176,0.703622043132782
033014,0.518798828125,0.5480033755302429,0.6967307925224304,0.6748897433280945
033016,0.499755859375,0.5580737590789795,0.629690945148468,0.7117340564727783
033018,0.962158203125,0.9623432755470276,0.9625431895256042,0.8535779714584351
033019,0.9673665165901184,0.9677524566650391,0.8748590350151062,0.7904008626937866
033020,0.9507649540901184,0.9554492831230164,0.8898733854293823,0.950775682926178
033021,0.95703125,0.9573165774345398,0.8046074509620667,0.7066450119018555
033022,0.431884765625,0.47504785656929016,0.7318407297134399,0.8337224125862122
033024,0.706298828125,0.7111732959747314,0.6245770454406738,0.7754094004631042
033027,0.703369140625,0.7065847516059875,0.5620065331459045,0.528390109539032
033029,0.953369140625,0.9566357135772705,0.7479812502861023,0.7005743980407715
033032,0.0,0.20617951452732086,0.0,0.30339863896369934
033033,0.956298828125,0.9588510394096375,1.0,0.9773008227348328
033036,0.968017578125,0.9680643081665039,1.0,0.9493051171302795
033038,0.19921875,0.2754496932029724,0.19636499881744385,0.38690194487571716
033039,0.701171875,0.7057880163192749,0.7184317708015442,0.6467660069465637
033041,0.957763671875,0.958497166633606,0.7236568927764893,0.882490336894989
033043,0.499755859375,0.5755953192710876,0.293855756521225,0.4384537637233734
033044,0.956298828125,0.9603304266929626,0.8195018768310547,0.8253740668296814
033046,0.365234375,0.442838191986084,0.26521679759025574,0.37871214747428894
033047,0.304931640625,0.39895474910736084,0.22860826551914215,0.35440200567245483
033051,0.968017578125,0.968061089515686,1.0,0.9631480574607849
033053,0.3125,0.3275314271450043,0.2682024836540222,0.5698326230049133
033054,0.431884765625,0.4732580780982971,0.390377938747406,0.5891692042350769
033055,0.571533203125,0.5791575312614441,0.49935534596443176,0.6307633519172668
033059,0.490234375,0.56284099817276,0.38805168867111206,0.4730418920516968
033060,0.94140625,0.9488414525985718,0.5900454521179199,0.6307207345962524
033062,0.2044270783662796,0.38946351408958435,0.15272833406925201,0.613070011138916
033063,0.957763671875,0.9583252668380737,0.7236568927764893,0.7346102595329285
033065,0.956298828125,0.95819091796875,1.0,0.8096806406974792
033067,0.606689453125,0.6502606868743896,0.46666663885116577,0.6055005192756653
033069,0.499755859375,0.5589091777801514,0.4490610957145691,0.6439483165740967
033070,0.951171875,0.95941162109375,0.694340705871582,0.705839216709137
033073,0.5757649540901184,0.5813069939613342,0.5708760023117065,0.7218510508537292
033076,0.9673665165901184,0.9677614569664001,1.0,0.9641816020011902
033077,0.951171875,0.9547935724258423,0.8472716808319092,0.7720382809638977
033080,0.701904296875,0.7090930342674255,0.5307213068008423,0.6876884698867798
033086,0.962158203125,0.9625718593597412,0.9625431895256042,0.932365894317627
033089,0.968017578125,0.9680612683296204,1.0,0.8131134510040283
033090,0.5694172978401184,0.5786077976226807,0.4055802822113037,0.5167425274848938
033091,0.659423828125,0.6633201241493225,0.5918076038360596,0.7636939287185669
033092,0.9444172978401184,0.9532462954521179,0.6219719052314758,0.7070358991622925
033093,0.3125,0.31751006841659546,0.2682024836540222,0.27847379446029663
033097,0.4778645932674408,0.4845937192440033,0.4055802822113037,0.5031073093414307
033098,0.953369140625,0.9584322571754456,0.7479812502861023,0.7677888870239258
033103,0.951171875,0.9538589715957642,0.6074502468109131,0.5057095885276794
033105,0.947998046875,0.9560174345970154,0.5985158681869507,0.6555988788604736
033107,0.619873046875,0.62474125623703,0.5410870313644409,0.6167503595352173
033108,0.956298828125,0.9592936038970947,0.7169486284255981,0.6368050575256348
033110,0.701904296875,0.7091757655143738,0.5307213068008423,0.8023967146873474
033113,0.518798828125,0.5710690021514893,0.4535067081451416,0.5202293395996094
033114,0.962158203125,0.9625332355499268,0.8420895934104919,0.8498890995979309
033115,0.633056640625,0.6400436162948608,0.5128524899482727,0.6379351019859314
033116,0.47265625,0.5720372200012207,0.3039627969264984,0.5485250353813171
033117,0.968017578125,0.9680532813072205,1.0,0.8995981216430664
033118,0.959228515625,0.959873378276825,0.7631344795227051,0.8439175486564636
033119,0.197998046875,0.30322009325027466,0.1916866898536682,0.4095451831817627
033120,0.21875,0.29241180419921875,0.15793579816818237,0.30190208554267883
033122,0.505615234375,0.5130670666694641,0.37429502606391907,0.43350639939308167
033123,0.25390625,0.3214610517024994,0.25817668437957764,0.5079060196876526
033124,0.968017578125,0.9680777788162231,1.0,0.9635053873062134
033128,0.962158203125,0.9624128937721252,0.9625431895256042,0.8287447690963745
033129,0.953369140625,0.9602876305580139,0.6543781161308289,0.6532633304595947
033132,0.9466145634651184,0.9517277479171753,0.5787770748138428,0.579237163066864
033133,0.520263671875,0.5211609601974487,0.5620065331459045,0.7613056898117065
033138,0.946533203125,0.953667163848877,0.575423002243042,0.7292441129684448
033139,0.556884765625,0.6101779341697693,0.4431702494621277,0.7021618485450745
033141,0.03125,0.15965636074543,0.022562257945537567,0.21452678740024567
033143,0.951904296875,0.9579020738601685,0.6230928897857666,0.740447998046875
033146,0.962158203125,0.9622955322265625,0.9625431895256042,0.9325471520423889
033147,0.518798828125,0.5641897916793823,0.4535067081451416,0.5674080848693848
033148,0.706298828125,0.7095900177955627,0.6245770454406738,0.6078011393547058
033149,0.9375,0.9526504278182983,0.5364049673080444,0.7530649900436401
033150,0.951171875,0.9579446911811829,0.694340705871582,0.7626731395721436
033151,0.957763671875,0.9586509466171265,0.7236568927764893,0.8370344042778015
033155,0.94140625,0.9539313316345215,0.5162065625190735,0.6670755743980408
033157,0.47265625,0.5621241331100464,0.3039627969264984,0.568589985370636
033158,0.4375,0.5532659292221069,0.2503223121166229,0.6660445928573608
033160,0.633056640625,0.6379619240760803,0.5862115621566772,0.7556965947151184
033161,0.701904296875,0.7074436545372009,0.6066363453865051,0.6814768314361572
033163,0.968017578125,0.968070924282074,1.0,0.9657955169677734
033164,0.939453125,0.9470293521881104,0.6820816993713379,0.7636247873306274
033165,0.571533203125,0.5784717202186584,0.43686550855636597,0.5698474049568176
033167,0.3599446713924408,0.43175825476646423,0.26257050037384033,0.6025044918060303
033168,0.9507649540901184,0.9549620151519775,0.8898733854293823,0.9076271653175354
033171,0.9507649540901184,0.9576141238212585,0.6379934549331665,0.6624051928520203
033172,0.701904296875,0.7068504095077515,0.7402501106262207,0.8654080033302307
033173,0.304931640625,0.304931640625,1.0,1.0
033174,0.571533203125,0.5799761414527893,0.43686550855636597,0.6466934084892273
033177,0.520263671875,0.5209369659423828,0.5620065331459045,0.7034872770309448
033178,0.946533203125,0.9518820643424988,0.6577322483062744,0.8356379866600037
033179,0.510498046875,0.515682578086853,0.6093400716781616,0.6602429151535034
033180,0.701171875,0.7095627784729004,0.5150786638259888,0.5806031227111816
033181,0.2044270783662796,0.2451537400484085,0.19029195606708527,0.28329795598983765
033185,0.939453125,0.944580078125,0.7848228216171265,0.9012991189956665
033186,0.94140625,0.9453162550926208,0.5900454521179199,0.5971837639808655
033187,0.44140625,0.44140625,0.501995861530304,0.4307851195335388
033188,0.568359375,0.5711695551872253,0.5958904027938843,0.5865744948387146
033190,0.9668782353401184,0.9674680829048157,0.7810032963752747,0.7610247135162354
033191,0.503173828125,0.5121185779571533,0.3430097699165344,0.4581472873687744
033192,0.2122395932674408,0.2956068515777588,0.19284793734550476,0.46961063146591187
033194,0.5757649540901184,0.5795791149139404,0.49943602085113525,0.6066785454750061
033195,0.9507649540901184,0.9560673832893372,0.6379934549331665,0.8482697010040283
033198,0.967041015625,0.9677925705909729,0.8122885227203369,0.9418938159942627
033200,0.518798828125,0.583891749382019,0.3716495931148529,0.4823724329471588
033201,0.701904296875,0.7086512446403503,0.5307213068008423,0.6668155789375305
033203,0.943359375,0.9487482905387878,0.7371450066566467,0.7257122993469238
033204,0.9507649540901184,0.9540731310844421,0.8898733854293823,0.8949790000915527
033207,0.953369140625,0.9602507948875427,0.6543781161308289,0.6716265082359314
033208,0.701171875,0.7058916687965393,0.5887562036514282,0.556302011013031
033209,0.388427734375,0.39747264981269836,0.3251410126686096,0.5194219946861267
033212,0.9375,0.9398186206817627,0.7171369194984436,0.6298620104789734
033215,0.39453125,0.4011545777320862,0.37281090021133423,0.5927878618240356
033216,0.9507649540901184,0.9552860856056213,0.7292529344558716,0.8583906888961792
033217,0.260498046875,0.3638272285461426,0.16052241623401642,0.3545610308647156
033218,0.14453125,0.2480490505695343,0.12132726609706879,0.2357361614704132
033219,0.946533203125,0.9501640200614929,0.8026000261306763,0.7418615221977234
033220,0.701171875,0.708737850189209,0.5150786638259888,0.5330368280410767
033221,0.02083333395421505,0.20606370270252228,0.017880165949463844,0.4591203033924103
033222,0.606689453125,0.6395960450172424,0.46666663885116577,0.6093503832817078
033226,0.499755859375,0.604503870010376,0.293855756521225,0.5219167470932007
033230,0.9673665165901184,0.9676828980445862,1.0,0.9403525590896606
033234,0.940673828125,0.951556921005249,0.5768473744392395,0.8231593370437622
033235,0.23828125,0.2630371153354645,0.7039180994033813,0.7365897297859192
033236,0.1875,0.38510268926620483,0.09385573863983154,0.38963377475738525
033241,0.701171875,0.7018323540687561,0.7184317708015442,0.7227379679679871
033244,0.30078125,0.3638153076171875,0.3454500138759613,0.528863787651062
033246,0.967041015625,0.9674621820449829,0.9284793138504028,0.8799951076507568
033248,0.951904296875,0.9563724398612976,0.6230928897857666,0.5597700476646423
033249,0.943359375,0.94415283203125,0.7371450066566467,0.6241974830627441
033250,0.956298828125,0.9611056447029114,0.7169486284255981,0.8939908742904663
033253,0.619873046875,0.6253445744514465,0.6602633595466614,0.6760889291763306
033254,0.968017578125,0.9680253863334656,1.0,0.9111549854278564
033256,0.962158203125,0.9624953269958496,0.8420895934104919,0.7370506525039673
033257,0.490234375,0.5344980955123901,0.3180091083049774,0.3581867218017578
033258,0.957763671875,0.9582735300064087,0.8271697163581848,0.8193380832672119
033261,0.584228515625,0.5847128033638,0.6245770454406738,0.583370566368103
033262,0.47265625,0.4775487184524536,0.4784300625324249,0.4933970272541046
033263,0.110107421875,0.25622206926345825,0.07620275020599365,0.31154632568359375
033264,0.957763671875,0.9583878517150879,0.7236568927764893,0.7529407143592834
033265,0.659423828125,0.6641651391983032,0.6764605641365051,0.7190307378768921
033267,0.490234375,0.5003509521484375,0.9467676877975464,0.9797453284263611
033268,0.488037109375,0.5549850463867188,0.398443341255188,0.44065847992897034
033270,0.633056640625,0.6341277956962585,0.7837249636650085,0.7903873920440674
033271,0.47265625,0.48224276304244995,0.3430097699165344,0.6355870962142944
033273,0.61328125,0.6217210292816162,0.5185247659683228,0.6424255967140198
033275,0.261474609375,0.36543360352516174,0.20000000298023224,0.47156772017478943
033276,0.44140625,0.4429931640625,0.40440693497657776,0.40710878372192383
033277,0.9375,0.9511079788208008,0.5364049673080444,0.8039623498916626
033278,0.32421875,0.3361818492412567,0.25437816977500916,0.4031243920326233
033280,0.580322265625,0.6130182147026062,0.4618985950946808,0.4491516053676605
033281,0.968017578125,0.9680206179618835,1.0,0.9986472129821777
033282,0.712158203125,0.7124334573745728,0.7497180104255676,0.8241193294525146
033283,0.966796875,0.967268705368042,0.8748388290405273,0.899716317653656
033285,0.450927734375,0.4593847393989563,0.39804574847221375,0.4861350357532501
033287,0.9668782353401184,0.9674620032310486,0.7810032963752747,0.7528733015060425
033290,0.659423828125,0.663280725479126,0.6764605641365051,0.8087015748023987
033291,0.953369140625,0.9558085203170776,0.912726640701294,0.8503076434135437
033293,0.499755859375,0.5858809947967529,0.293855756521225,0.6992219090461731
033294,0.947998046875,0.9535883069038391,0.5985158681869507,0.5982279777526855
033295,0.571533203125,0.579902172088623,0.43686550855636597,0.6259428262710571
033296,0.47265625,0.5226094722747803,0.8178747296333313,0.8969541192054749
033298,0.166259765625,0.1930389404296875,0.5307213068008423,0.6315043568611145
033299,0.9507649540901184,0.957676887512207,0.6379934549331665,0.7252449989318848
033300,0.47265625,0.49675750732421875,0.8178747296333313,0.8721039295196533
033303,0.508056640625,0.5150254964828491,0.46666663885116577,0.7213009595870972
033304,0.34765625,0.36002522706985474,0.3358892798423767,0.6110129952430725
033306,0.4375,0.5294969081878662,0.21899673342704773,0.4103664457798004
033308,0.962158203125,0.9626374840736389,0.8420895934104919,0.8843172788619995
033310,0.951904296875,0.9551444053649902,0.7122209072113037,0.7369918823242188
033311,0.967041015625,0.967736005783081,0.8122885227203369,0.8944941163063049
033312,0.47265625,0.5080047845840454,0.3709116578102112,0.4091206192970276
033314,0.9375,0.9375,0.7531440854072571,0.7531440854072571
033315,0.9444172978401184,0.9527913331985474,0.6219719052314758,0.8048981428146362
033316,0.966796875,0.966796875,0.8748388290405273,0.7086207866668701
033317,0.5694172978401184,0.5770019888877869,0.4635950028896332,0.6942837834358215
033319,0.0625,0.1800086498260498,0.10055973380804062,0.4257575571537018
033321,0.962158203125,0.9626824259757996,0.8420895934104919,0.7776049375534058
033323,0.633056640625,0.6346027851104736,0.7837249636650085,0.7392334938049316
033324,0.490234375,0.5762985944747925,0.3180091083049774,0.5240474939346313
033325,0.365234375,0.365234375,0.789595901966095,0.789595901966095
033326,0.4375,0.4867187440395355,0.30545666813850403,0.3129251003265381
033328,0.499755859375,0.5415983200073242,0.7271926999092102,0.8706863522529602
033330,0.9673665165901184,0.9676370620727539,0.8748590350151062,0.7772095799446106
033332,0.953369140625,0.9573896527290344,0.912726640701294,0.9277472496032715
033333,0.703369140625,0.708530068397522,0.5620065331459045,0.7072643637657166
033334,0.4375,0.4585937559604645,0.5419421792030334,0.6317929625511169
033335,0.580322265625,0.6002057790756226,0.5636333227157593,0.5813322067260742
033336,0.956298828125,0.9603849649429321,0.7169486284255981,0.9140009880065918
033337,0.0,0.1650833785533905,0.0,0.4147661030292511
033339,0.962158203125,0.9624933004379272,0.8420895934104919,0.7265198826789856
033340,0.0,0.09444471448659897,0.0,0.28454095125198364
033342,0.9673665165901184,0.967751145362854,0.8748590350151062,0.8071444034576416
033344,0.9375,0.9375,0.5364049673080444,0.4158495366573334
033346,0.956298828125,0.956298828125,1.0,1.0
033348,0.23828125,0.34529876708984375,0.2446610927581787,0.5457966327667236
033349,0.469970703125,0.477677583694458,0.4431702494621277,0.648465096950531
033350,0.5694172978401184,0.5787782669067383,0.4635950028896332,0.7305135726928711
033351,0.959228515625,0.9596872329711914,0.8722942471504211,0.9152315258979797
033352,0.1458333432674408,0.16692709922790527,0.3935772776603699,0.5240828394889832
033353,0.263671875,0.395801842212677,0.21350501477718353,0.6237866878509521
033354,0.943359375,0.9556053876876831,0.5284951329231262,0.8363391160964966
033356,0.9673665165901184,0.9677506685256958,0.8748590350151062,0.7316812872886658
033357,0.1458333432674408,0.25613442063331604,0.12516115605831146,0.4859454333782196
033358,0.9388020634651184,0.9507524967193604,0.48492133617401123,0.6005954742431641
033359,0.968017578125,0.9680637717247009,1.0,0.896568775177002
033361,0.46875,0.4823859930038452,0.29608190059661865,0.5385352373123169
033368,0.47265625,0.5260627269744873,0.5698384642601013,0.6050809621810913
033370,0.0,0.1943875253200531,0.0,0.38556092977523804
033374,0.567138671875,0.5961222052574158,0.5199966430664062,0.528980553150177
033375,0.9388020634651184,0.94814532995224,0.5542851090431213,0.578613817691803
033377,0.9673665165901184,0.9678124189376831,0.8748590350151062,0.7932082414627075
033382,0.956298828125,0.9574633836746216,1.0,0.7789584398269653
033383,0.951171875,0.9531011581420898,0.9282863140106201,0.9618136882781982
033384,0.956298828125,0.9609667658805847,0.8195018768310547,0.9347972273826599
033385,0.946533203125,0.9519578814506531,0.8026000261306763,0.7766938805580139
033388,0.261474609375,0.36472243070602417,0.20000000298023224,0.4013504087924957
033389,0.0625,0.19135741889476776,0.11613046377897263,0.5591841340065002
033391,0.956298828125,0.9564533233642578,1.0,0.9950652718544006
033392,0.9668782353401184,0.9675904512405396,0.7810032963752747,0.913936197757721
033393,0.9673665165901184,0.967756450176239,0.8748590350151062,0.9114289879798889
033394,0.956298828125,0.9585850238800049,1.0,0.9164382219314575
033396,0.510498046875,0.5160043239593506,0.49935534596443176,0.6374252438545227
033397,0.9673665165901184,0.9677976369857788,0.8748590350151062,0.8679717779159546
033398,0.951171875,0.9566787481307983,0.6074502468109131,0.5146052837371826
033399,0.388427734375,0.3982428312301636,0.3251410126686096,0.6479561924934387
033400,0.943359375,0.9537456035614014,0.5284951329231262,0.6192923784255981
033404,0.48828125,0.4886459410190582,0.6066363453865051,0.6756481528282166
033405,0.584228515625,0.5847076773643494,0.6245770454406738,0.6635403037071228
033407,0.584228515625,0.5850054025650024,0.6245770454406738,0.8038928508758545
033410,0.2774251401424408,0.4275715947151184,0.20770297944545746,0.6110588908195496
033412,0.962158203125,0.9625612497329712,0.8420895934104919,0.8959051370620728
033413,0.455078125,0.5579203367233276,0.23873552680015564,0.4438214600086212
033414,0.30078125,0.32422706484794617,0.3454500138759613,0.3345731198787689
033415,0.08984375,0.24439895153045654,0.09298666566610336,0.3980652987957001
033416,0.943359375,0.953220546245575,0.5284951329231262,0.6258174180984497
033417,0.44921875,0.5063047409057617,0.5806522965431213,0.774340033531189
033420,0.0625,0.2627646028995514,0.04692786931991577,0.5393155813217163
033421,0.967041015625,0.967808187007904,0.8122885227203369,0.8152616024017334
033422,0.946533203125,0.9528911113739014,0.6577322483062744,0.7162551879882812
033424,0.4778645932674408,0.4863326847553253,0.4635950028896332,0.6933261752128601
033425,0.228759765625,0.3540114760398865,0.14772342145442963,0.38048994541168213
033426,0.9673665165901184,0.9676418900489807,1.0,0.8939459919929504
033427,0.953369140625,0.960319995880127,0.6543781161308289,0.843508780002594
033429,0.3599446713924408,0.42046165466308594,0.26257050037384033,0.35240381956100464
033430,0.706298828125,0.7105835676193237,0.7139173746109009,0.7778260111808777
033435,0.560546875,0.5901106595993042,0.4981783330440521,0.5292683839797974
033436,0.571533203125,0.5816625952720642,0.43686550855636597,0.7379782795906067
033439,0.9375,0.9460922479629517,0.4692787230014801,0.5183932185173035
033441,0.9375,0.9461040496826172,0.4692787230014801,0.4428410828113556
033442,0.968017578125,0.9680762887001038,1.0,0.8587756156921387
033443,0.968017578125,0.9680567979812622,1.0,0.8211532235145569
033444,0.48828125,0.4889436662197113,0.6066363453865051,0.671157717704773
033445,0.212890625,0.3801487684249878,0.12984324991703033,0.6087908744812012
033447,0.9466145634651184,0.9529556035995483,0.5787770748138428,0.7062079906463623
033448,0.701171875,0.7059751152992249,0.5887562036514282,0.616366446018219
033452,0.951171875,0.9565306901931763,0.6074502468109131,0.6324509978294373
033454,0.4778645932674408,0.4780843257904053,0.5657033920288086,0.567649245262146
033455,0.967041015625,0.9674810767173767,0.8122885227203369,0.7056393027305603
033457,0.9673665165901184,0.9676206707954407,1.0,0.8434033989906311
033459,0.712158203125,0.712158203125,0.8569586873054504,0.8569586873054504
033460,0.9673665165901184,0.967558741569519,1.0,0.9800048470497131
033463,0.9673665165901184,0.9677698612213135,0.8748590350151062,0.897300124168396
033466,0.943359375,0.9512578248977661,0.5284951329231262,0.5830383896827698
033468,0.4375,0.5163818597793579,0.30545666813850403,0.601526141166687
033470,0.968017578125,0.9680405855178833,1.0,0.7321968078613281
033472,0.953369140625,0.9580912590026855,0.7479812502861023,0.8084787726402283
033474,0.939453125,0.9464797973632812,0.5589672327041626,0.7884012460708618
033475,0.47265625,0.5434314012527466,0.3709116578102112,0.42003297805786133
033476,0.947998046875,0.9543447494506836,0.5985158681869507,0.8482370376586914
033478,0.9673665165901184,0.9677416086196899,0.8748590350151062,0.8687350153923035
033480,0.962158203125,0.9624828100204468,0.8420895934104919,0.7407715916633606
033481,0.3059895932674408,0.3958389461040497,0.2033541053533554,0.5674748420715332
033487,0.450927734375,0.46254366636276245,0.3482339084148407,0.6181585192680359
033488,0.0,0.16692164540290833,0.0,0.38772818446159363
033489,0.9444172978401184,0.9560850858688354,0.544137716293335,0.8650010228157043
033490,0.518798828125,0.589099109172821,0.3251410126686096,0.4776707589626312
033491,0.4375,0.46484375,0.21899673342704773,0.19588778913021088
033492,0.951904296875,0.9547973871231079,0.7122209072113037,0.6559043526649475
033495,0.953369140625,0.959004282951355,0.7479812502861023,0.795872688293457
033496,0.962158203125,0.9626102447509766,0.8420895934104919,0.9072661399841309
033497,0.47265625,0.5117633938789368,0.6580725908279419,0.7294290065765381
033498,0.2122395932674408,0.3036956191062927,0.19284793734550476,0.5534969568252563
033500,0.4375,0.5349974036216736,0.21899673342704773,0.6272691488265991
033502,0.09375,0.2878825068473816,0.08259502053260803,0.36026349663734436
033503,0.957763671875,0.9585102200508118,0.7236568927764893,0.8275800943374634
033505,0.939453125,0.939453125,0.7848228216171265,0.7848228216171265
033506,0.08984375,0.2110711634159088,0.07620275020599365,0.32736995816230774
033508,0.469970703125,0.4753827154636383,0.5924884676933289,0.6531679630279541
033509,0.956298828125,0.9610581398010254,0.7169486284255981,0.7302882671356201
033510,0.490234375,0.5784302949905396,0.27821314334869385,0.39054420590400696
033512,0.968017578125,0.9680769443511963,1.0,0.9453796148300171
033513,0.712158203125,0.7125329375267029,0.7497180104255676,0.8063566088676453
033514,0.606689453125,0.6148699522018433,1.0,0.6882439851760864
033515,0.34765625,0.35166072845458984,0.293855756521225,0.29548168182373047
033516,0.2044270783662796,0.3884807825088501,0.10949836671352386,0.3544161021709442
033517,0.9388020634651184,0.9415486454963684,0.8427215218544006,0.8920795321464539
033519,0.14453125,0.26734352111816406,0.1061442568898201,0.36430487036705017
033520,0.466064453125,0.5513741970062256,0.35480669140815735,0.5845319628715515
033523,0.951904296875,0.9567503929138184,0.7122209072113037,0.6703782081604004
033526,0.9466145634651184,0.9549944400787354,0.6615661382675171,0.785304844379425
033527,0.5757649540901184,0.5816124677658081,0.5708760023117065,0.7742762565612793
033528,0.9673665165901184,0.9675295948982239,1.0,0.8751057386398315
033530,0.32421875,0.3383452892303467,0.2907647490501404,0.5510069131851196
033532,0.94140625,0.9485181570053101,0.7200049757957458,0.8073798418045044
033533,0.166259765625,0.25038209557533264,0.16220630705356598,0.31428074836730957
033534,0.956298828125,0.9588577747344971,0.8195018768310547,0.7020840048789978
033537,0.966796875,0.9672297835350037,0.7653606534004211,0.6593820452690125
033538,0.946533203125,0.9547981023788452,0.6577322483062744,0.7559762001037598
033539,0.9668782353401184,0.967453122138977,0.892719030380249,0.8862037658691406
033540,0.951171875,0.9583578705787659,0.6074502468109131,0.6469056010246277
033541,0.3059895932674408,0.3059895932674408,0.2033541053533554,0.15304216742515564
033542,0.260498046875,0.260498046875,0.24530528485774994,0.22355437278747559
033543,0.3125,0.32181039452552795,0.2682024836540222,0.4097268879413605
033544,0.518798828125,0.6103644967079163,0.3251410126686096,0.6997237205505371
033545,0.30078125,0.37884142994880676,0.24766992032527924,0.6483702659606934
033546,0.968017578125,0.9680591821670532,1.0,0.7867909669876099
033549,0.95703125,0.9575549960136414,0.7039180397987366,0.672914445400238
033550,0.197998046875,0.197998046875,0.8145672082901001,0.8145672082901001
033552,0.488037109375,0.5925670266151428,0.2856633961200714,0.6765584945678711
033553,0.951904296875,0.9582551717758179,0.7122209072113037,0.7419877648353577
033555,0.957763671875,0.9583595395088196,0.8271697163581848,0.858055830001831
033557,0.25390625,0.257476806640625,0.5692896842956543,0.5757834911346436
033558,0.091796875,0.1192626953125,0.3948093354701996,0.6534972190856934
033560,0.957763671875,0.9584202170372009,0.8271697163581848,0.8591116666793823
033562,0.9375,0.9402971267700195,0.5777241587638855,0.5966788530349731
033563,0.9507649540901184,0.9551263451576233,0.8898733854293823,0.9472618699073792
033564,0.300537109375,0.4060601592063904,0.24733662605285645,0.6281766295433044
033567,0.606689453125,0.6391646862030029,0.6509066820144653,0.7428610324859619
033568,0.23828125,0.34635359048843384,0.16092148423194885,0.3992953598499298
033571,0.956298828125,0.9604609608650208,0.7169486284255981,0.8186755776405334
033572,0.1458333432674408,0.27999013662338257,0.12516115605831146,0.40115833282470703
033573,0.966796875,0.9675397872924805,0.7653606534004211,0.7500704526901245
033577,0.959228515625,0.9597654938697815,0.7631344795227051,0.752493143081665
033588,0.393798828125,0.4344139099121094,0.690318763256073,0.839723527431488
033589,0.968017578125,0.9680658578872681,1.0,0.9217259287834167
033592,0.9375,0.9492226243019104,0.6545500159263611,0.8582780361175537
033594,0.94140625,0.9453338384628296,0.8970906734466553,0.9628022313117981
033595,0.712158203125,0.712287187576294,0.8569586873054504,0.8637406826019287
033596,0.9507649540901184,0.957674503326416,0.6379934549331665,0.7204105854034424
033597,0.966796875,0.9672227501869202,0.7653606534004211,0.7595235109329224
033598,0.567138671875,0.6048449277877808,0.4261382520198822,0.4993666112422943
033600,0.5694172978401184,0.5798435807228088,0.4055802822113037,0.7070349454879761
033603,0.957763671875,0.9577865600585938,0.7236568927764893,0.6671208143234253
033605,0.469970703125,0.47484391927719116,0.5924884676933289,0.7026282548904419
033606,0.9668782353401184,0.9675081372261047,0.7810032963752747,0.8671092987060547
033607,0.4375,0.49164000153541565,0.5419421792030334,0.7450149655342102
033608,0.968017578125,0.9680607914924622,1.0,0.9138463735580444
033609,0.488037109375,0.5889506340026855,0.4365417957305908,0.7363882660865784
033610,0.4778645932674408,0.4861043393611908,0.4635950028896332,0.6639359593391418
033611,0.953369140625,0.9587928652763367,0.7479812502861023,0.8081227540969849
033612,0.21875,0.3515276312828064,0.2111494094133377,0.5678126215934753
033613,0.508056640625,0.512586772441864,0.46666663885116577,0.4563157558441162
033617,0.967041015625,0.9678127765655518,0.8122885227203369,0.8934219479560852
033618,0.9673665165901184,0.9674695134162903,1.0,0.9618445038795471
033619,0.501953125,0.5148634910583496,0.3273671567440033,0.6099455952644348
033620,0.556884765625,0.6066269874572754,0.4431702494621277,0.6961461305618286
033621,0.9466145634651184,0.9470540285110474,0.9288777112960815,0.9483014345169067
033623,0.703369140625,0.7048382759094238,0.7838867902755737,0.7713478803634644
033625,0.94140625,0.9465346336364746,0.7200049757957458,0.8299046158790588
033626,0.943359375,0.9529983997344971,0.5284951329231262,0.6881120800971985
033627,0.939453125,0.9508448839187622,0.489017516374588,0.6198399066925049
033628,0.9668782353401184,0.9671617746353149,0.892719030380249,0.8446407318115234
033631,0.951904296875,0.9555111527442932,0.6230928897857666,0.541150689125061
033633,0.365234375,0.40486860275268555,0.26521679759025574,0.306857168674469
033634,0.228759765625,0.37039369344711304,0.14772342145442963,0.40355896949768066
033635,0.953369140625,0.953369140625,1.0,1.0
033636,0.469970703125,0.47657808661460876,0.4431702494621277,0.6453078389167786
033638,0.0,0.05820312350988388,0.0,0.12538939714431763
033639,0.3599446713924408,0.45011207461357117,0.26257050037384033,0.541495144367218
033640,0.953369140625,0.9564062356948853,0.912726640701294,0.9718522429466248
033642,0.962158203125,0.962399959564209,0.9625431895256042,0.9540273547172546
033643,0.951171875,0.9538941979408264,0.9282863140106201,0.9778715968132019
033645,0.212890625,0.32161957025527954,0.12984324991703033,0.3721446394920349
033646,0.966796875,0.9669867753982544,0.7653606534004211,0.5715213418006897
033647,0.9375,0.9423319697380066,0.7171369194984436,0.8342512845993042
033649,0.556884765625,0.5838982462882996,0.8308104276657104,0.7494057416915894
033650,0.0,0.1061197966337204,0.0,0.17732924222946167
033652,0.505615234375,0.5150952935218811,0.37429502606391907,0.571264922618866
033654,0.393798828125,0.4435727000236511,0.690318763256073,0.7846693992614746
033656,0.953369140625,0.9583979249000549,0.6543781161308289,0.6376152038574219
033657,0.9673665165901184,0.9676635265350342,1.0,0.8551960587501526
033662,0.61328125,0.6200103759765625,0.5185247659683228,0.7043142914772034
033664,0.966796875,0.9672826528549194,0.7653606534004211,0.736105740070343
033665,0.9668782353401184,0.9673357009887695,0.892719030380249,0.962212860584259
033666,0.951904296875,0.9596290588378906,0.7122209072113037,0.9289313554763794
033669,0.956298828125,0.9589876532554626,1.0,0.9588782787322998
033672,0.560546875,0.5878455638885498,0.4981783330440521,0.5002310276031494
033673,0.946533203125,0.9530767202377319,0.6577322483062744,0.7049693465232849
033676,0.4375,0.49675291776657104,0.30545666813850403,0.42009398341178894
033677,0.606689453125,0.6416229009628296,0.5334192514419556,0.759090006351471
033678,0.951171875,0.9580674171447754,0.6074502468109131,0.8407658934593201
033679,0.703369140625,0.703369140625,0.8588406443595886,0.8088757395744324
033683,0.431884765625,0.431884765625,0.4763599932193756,0.4509362578392029
033684,0.962158203125,0.9624068737030029,0.8420895934104919,0.8380733728408813
033687,0.940673828125,0.9421758651733398,1.0,1.0
033688,0.943359375,0.9492111206054688,0.8076295852661133,0.9492461085319519
033689,0.967041015625,0.967788577079773,0.8122885227203369,0.882295548915863
033690,0.5694172978401184,0.5792633891105652,0.4055802822113037,0.733616292476654
033692,0.943359375,0.9483184814453125,0.8076295852661133,0.9383643269538879
033694,0.39453125,0.40167921781539917,0.4261382520198822,0.633045494556427
033696,0.701904296875,0.7069045901298523,0.7402501106262207,0.8354827761650085
033697,0.9375,0.9462494850158691,0.4692787230014801,0.7589330673217773
033699,0.520263671875,0.5208659172058105,0.5620065331459045,0.7122573256492615
033700,0.943115234375,0.9439598321914673,0.9849443435668945,0.9776106476783752
033702,0.951904296875,0.9562623500823975,0.8690900206565857,0.9272158145904541
033703,0.9375,0.9375,0.6545500159263611,0.6098703742027283
033708,0.94140625,0.9430510401725769,0.5900454521179199,0.55401211977005
033709,0.703369140625,0.7071120738983154,0.7838867902755737,0.8064169883728027
033710,0.323974609375,0.36711418628692627,0.5520787835121155,0.7389520406723022
033711,0.633056640625,0.6379618644714355,0.5862115621566772,0.63728928565979
033712,0.5757649540901184,0.5814277529716492,0.5708760023117065,0.7341128587722778
033713,0.16796875,0.2398565113544464,0.18026001751422882,0.2842367887496948
033716,0.0,0.23515625298023224,0.0,0.3936689496040344
033717,0.3125,0.32133999466896057,0.23463936150074005,0.44551005959510803
033718,0.531982421875,0.590776801109314,0.48571667075157166,0.6814602613449097
033719,0.5757649540901184,0.581347644329071,0.49943602085113525,0.5654877424240112
033720,0.0625,0.08059082180261612,0.08624263107776642,0.1258486956357956
033721,0.9444172978401184,0.9487573504447937,0.544137716293335,0.5144259333610535
033722,0.0,0.0,0.0,0.0
033725,0.09375,0.25253021717071533,0.05921638384461403,0.4459882080554962
033726,0.501953125,0.5076370239257812,0.3273671567440033,0.4044628143310547
033728,0.520263671875,0.5204596519470215,0.6423966884613037,0.6422635912895203
033729,0.619873046875,0.6259683966636658,0.4733748733997345,0.687724232673645
033730,0.619873046875,0.6279057860374451,0.4733748733997345,0.6472994089126587
033731,0.505615234375,0.5168851613998413,0.427834689617157,0.5228015184402466
033733,0.947998046875,0.947998046875,0.6841284036636353,0.6216842532157898
033734,0.953369140625,0.9602767825126648,0.6543781161308289,0.7795753479003906
033737,0.968017578125,0.9680643677711487,1.0,0.952282190322876
033738,0.03125,0.2548675537109375,0.022562257945537567,0.28050386905670166
033739,0.956298828125,0.9583024382591248,1.0,0.928105354309082
033740,0.967041015625,0.9672220349311829,1.0,1.0
033741,0.3599446713924408,0.4293537139892578,0.3001289367675781,0.5133525133132935
033742,0.946533203125,0.9520962238311768,0.575423002243042,0.6913414597511292
033743,0.4700520932674408,0.4771502912044525,0.3563140034675598,0.43155232071876526
033744,0.05078125,0.23435240983963013,0.04044242203235626,0.37114062905311584
033746,0.9673665165901184,0.9676769971847534,1.0,0.925258457660675
033749,0.703369140625,0.7103476524353027,0.5620065331459045,0.7991322875022888
033751,0.44140625,0.44869211316108704,0.501995861530304,0.6528124809265137
033752,0.959228515625,0.9599975943565369,0.7631344795227051,0.9043630957603455
033753,0.962158203125,0.9625200033187866,0.8420895934104919,0.8796523213386536
033754,0.959228515625,0.9597591757774353,0.7631344795227051,0.8788468241691589
033755,0.946533203125,0.9549651145935059,0.575423002243042,0.6960157752037048
033756,0.703369140625,0.7102797627449036,0.5620065331459045,0.7351598739624023
033757,0.9375,0.9408133625984192,0.4692787230014801,0.37737298011779785
033758,0.518798828125,0.5710496306419373,0.4535067081451416,0.6153090596199036
033763,0.953369140625,0.9563080072402954,0.912726640701294,0.7520521283149719
033764,0.947998046875,0.9549053907394409,0.6841284036636353,0.8307119011878967
033765,0.431884765625,0.44493961334228516,0.8451594114303589,0.7075871229171753
033766,0.374755859375,0.4467681646347046,0.3454500138759613,0.5530121922492981
033768,0.584228515625,0.5850107669830322,0.6245770454406738,0.7817321419715881
033770,0.9668782353401184,0.9675012826919556,0.7810032963752747,0.7044989466667175
033771,0.9673665165901184,0.9676851630210876,1.0,0.9519553780555725
033772,0.393798828125,0.4531596601009369,0.38908666372299194,0.631742000579834
033776,0.951904296875,0.9571382999420166,0.7122209072113037,0.7513507008552551
033778,0.957763671875,0.9581784605979919,0.8271697163581848,0.8670921325683594
033781,0.953369140625,0.9592277407646179,0.6543781161308289,0.7314453721046448
033782,0.2122395932674408,0.28875529766082764,0.19284793734550476,0.5358310341835022
033783,0.584228515625,0.58478182554245,0.7139173746109009,0.7645803689956665
033784,0.706298828125,0.7087224721908569,0.7139173746109009,0.5996743440628052
033785,0.9466145634651184,0.9533155560493469,0.5787770748138428,0.6577181220054626
033786,0.943115234375,0.9528230428695679,0.6126077175140381,0.7879275679588318
033791,0.567138671875,0.6268660426139832,0.4261382520198822,0.5233135223388672
033792,0.95703125,0.957969069480896,0.7039180397987366,0.6567807793617249
033793,0.959228515625,0.9598350524902344,0.7631344795227051,0.870642900466919
033794,0.9466145634651184,0.95347660779953,0.5787770748138428,0.7810717821121216
033795,0.968017578125,0.9680617451667786,1.0,0.9471018314361572
033796,0.946533203125,0.9544510245323181,0.6577322483062744,0.8195826411247253
033798,0.03125,0.21425949037075043,0.022562257945537567,0.352375328540802
033800,0.957763671875,0.9583609104156494,0.7236568927764893,0.7748079895973206
033802,0.9507649540901184,0.9551293849945068,0.6379934549331665,0.6144410967826843
033803,0.962158203125,0.9626055955886841,0.8420895934104919,0.8103119730949402
033804,0.47265625,0.4827096164226532,0.3430097699165344,0.533240556716919
033807,0.951171875,0.951171875,0.694340705871582,0.6267699599266052
033808,0.393798828125,0.47018617391586304,0.2789551615715027,0.584000825881958
033809,0.962158203125,0.9622983932495117,0.9625431895256042,0.7296735048294067
033810,0.32421875,0.335681289434433,0.25437816977500916,0.4820091128349304
033811,0.47265625,0.568657636642456,0.2659246027469635,0.48557794094085693
033812,0.706298828125,0.7091931104660034,0.871160089969635,0.8796889185905457
033813,0.957763671875,0.9578889608383179,0.8271697163581848,0.7043893337249756
033814,0.47265625,0.5309141874313354,0.5698384642601013,0.7820265889167786
033817,0.580322265625,0.6324644684791565,0.4618985950946808,0.7403020858764648
033818,0.633056640625,0.6380497813224792,0.5862115621566772,0.734111487865448
033822,0.4778645932674408,0.4847372770309448,0.4635950028896332,0.7084331512451172
033824,0.968017578125,0.9680574536323547,1.0,0.9428685903549194
033825,0.9507649540901184,0.9565434455871582,0.6379934549331665,0.7198482155799866
033827,0.9375,0.9456542730331421,0.7171369194984436,0.9167541265487671
033829,0.712158203125,0.7124742269515991,0.8569586873054504,0.8151162266731262
033833,0.3599446713924408,0.40121376514434814,0.36623337864875793,0.45207908749580383
033834,0.501953125,0.5098722577095032,0.3741941750049591,0.45339012145996094
033835,0.261474609375,0.31060996651649475,0.2789600193500519,0.4003925025463104
033836,0.956298828125,0.9602620005607605,0.8195018768310547,0.8046829700469971
033837,0.939453125,0.9457855224609375,0.6820816993713379,0.7179718017578125
033839,0.568359375,0.5750489234924316,0.4457148313522339,0.606451153755188
033841,0.606689453125,0.6498674750328064,0.46666663885116577,0.6350710391998291
033842,0.967041015625,0.9677965641021729,0.8122885227203369,0.7059420943260193
033843,0.606689453125,0.6424940824508667,0.5334192514419556,0.5868464112281799
033845,0.344482421875,0.39148959517478943,0.38908666372299194,0.5378762483596802
033846,0.584228515625,0.5848099589347839,0.6245770454406738,0.6869170665740967
033848,0.9673665165901184,0.9675236940383911,1.0,0.7890491485595703
033849,0.939453125,0.9513021111488342,0.489017516374588,0.5527869462966919
033850,0.951904296875,0.9577801823616028,0.6230928897857666,0.7686423659324646
033851,0.518798828125,0.5480765104293823,0.6967307925224304,0.6192408800125122
033853,0.508056640625,0.5135998725891113,0.46666663885116577,0.5936164855957031
033855,0.431884765625,0.4952753186225891,0.390377938747406,0.749563992023468
033858,0.959228515625,0.9597935080528259,0.7631344795227051,0.7737690210342407
033860,0.967041015625,0.9677239060401917,0.8122885227203369,0.7744905352592468
033863,0.95703125,0.9576135873794556,0.7039180397987366,0.693354606628418
033864,0.4700520932674408,0.4731849133968353,0.3563140034675598,0.33159810304641724
033868,0.959228515625,0.9598538875579834,0.7631344795227051,0.8148735165596008
033869,0.0,0.0,0.0,0.0
033872,0.968017578125,0.9680771231651306,1.0,0.9402530193328857
033874,0.943115234375,0.9545782208442688,0.5359453558921814,0.6552766561508179
033875,0.95703125,0.9575821161270142,0.8046074509620667,0.703600287437439
033876,0.47265625,0.5478874444961548,0.3039627969264984,0.5337117314338684
033879,0.25390625,0.332390159368515,0.25817668437957764,0.5519170165061951
033881,0.701171875,0.7071597576141357,0.7184317708015442,0.7402748465538025
033883,0.9673665165901184,0.9678914546966553,0.8748590350151062,0.8431513905525208
033884,0.571533203125,0.575810968875885,0.49935534596443176,0.5359941720962524
033885,0.962158203125,0.9625075459480286,0.9625431895256042,0.8345513939857483
033886,0.4375,0.4462890625,0.30545666813850403,0.31826865673065186
033888,0.951904296875,0.956384539604187,0.7122209072113037,0.6711678504943848
033889,0.962158203125,0.9626880884170532,0.8420895934104919,0.8786827325820923
033891,0.959228515625,0.9598347544670105,0.7631344795227051,0.741020917892456
033893,0.9668782353401184,0.9676805734634399,0.7810032963752747,0.8944868445396423
033895,0.263671875,0.27192384004592896,0.90728360414505,0.9790188074111938
033897,0.968017578125,0.9680549502372742,1.0,0.7809532284736633
033899,0.968017578125,0.968076229095459,1.0,0.8452490568161011
033900,0.9673665165901184,0.9678463339805603,0.8748590350151062,0.9456287622451782
033901,0.962158203125,0.9625012278556824,0.9625431895256042,0.9182355403900146
033902,0.967041015625,0.9675323367118835,0.8122885227203369,0.7914796471595764
033903,0.304931640625,0.4033409655094147,0.2789600193500519,0.5730156302452087
033904,0.5757649540901184,0.5827261805534363,0.49943602085113525,0.7330979108810425
033906,0.9673665165901184,0.9677323698997498,0.8748590350151062,0.8142130970954895
033908,0.701904296875,0.7098844647407532,0.6066363453865051,0.7501254081726074
033909,0.953369140625,0.9589480757713318,0.6543781161308289,0.7767839431762695
033912,0.706298828125,0.7110633254051208,0.6245770454406738,0.6723793148994446
033914,0.9668782353401184,0.9674314856529236,0.892719030380249,0.8143761157989502
033915,0.966796875,0.96722412109375,0.8748388290405273,0.8662412762641907
033916,0.968017578125,0.9680632948875427,1.0,0.878387987613678
033917,0.956298828125,0.9594801068305969,1.0,0.9509031772613525
033920,0.701904296875,0.7062230110168457,0.7402501106262207,0.8351682424545288
033922,0.968017578125,0.9680424332618713,1.0,0.8247524499893188
033924,0.9375,0.944832980632782,0.4692787230014801,0.4545596241950989
033925,0.956298828125,0.9606581330299377,0.7169486284255981,0.8682113289833069
033927,0.957763671875,0.9583665132522583,0.7236568927764893,0.7080132961273193
033929,0.9507649540901184,0.9575396776199341,0.7292529344558716,0.8908917903900146
033930,0.3599446713924408,0.4502072036266327,0.36623337864875793,0.6417644023895264
033931,0.968017578125,0.968076765537262,1.0,0.858117938041687
033932,0.9673665165901184,0.967901885509491,0.8748590350151062,0.9454777240753174
033933,0.431884765625,0.48418140411376953,0.390377938747406,0.5782104134559631
033934,0.48828125,0.4890027642250061,0.5307213068008423,0.6627991795539856
033936,0.606689453125,0.637947678565979,0.5334192514419556,0.7247685790061951
033937,0.951904296875,0.9582090377807617,0.7122209072113037,0.8293941020965576
033939,0.9673665165901184,0.9678936004638672,0.8748590350151062,0.8572955131530762
033940,0.959228515625,0.9599230289459229,0.7631344795227051,0.8220286965370178
033941,0.9673665165901184,0.9679041504859924,0.8748590350151062,0.9660176038742065
033945,0.951171875,0.9559595584869385,0.694340705871582,0.6874219179153442
033947,0.967041015625,0.9676681160926819,0.9284793138504028,0.9419794082641602
033949,0.9466145634651184,0.9528741836547852,0.5787770748138428,0.7320795059204102
033951,0.488037109375,0.5717769265174866,0.398443341255188,0.7106994986534119
033952,0.393798828125,0.4299166798591614,0.38908666372299194,0.41795381903648376
033954,0.951171875,0.9579737782478333,0.694340705871582,0.7953792214393616
033955,0.9444172978401184,0.95420902967453,0.544137716293335,0.7896353006362915
033958,0.956298828125,0.9610427021980286,0.7169486284255981,0.7716933488845825
033959,0.9375,0.9427505731582642,0.4692787230014801,0.42167553305625916
033962,0.531982421875,0.5970153212547302,0.3482339084148407,0.6163394451141357
033963,0.943359375,0.9512267112731934,0.7371450066566467,0.7506605982780457
033964,0.968017578125,0.9680590629577637,1.0,0.9245951771736145
033966,0.962158203125,0.9626860618591309,0.8420895934104919,0.8822774291038513
033967,0.9668782353401184,0.967304527759552,0.892719030380249,0.9855483770370483
033969,0.580322265625,0.6435943245887756,0.4618985950946808,0.7377189993858337
033971,0.659423828125,0.6618335843086243,0.5918076038360596,0.5476709604263306
033974,0.9375,0.9522659182548523,0.4692787230014801,0.5952717065811157
033976,0.940673828125,0.9521770477294922,0.5046601295471191,0.6632691621780396
033977,0.9668782353401184,0.9673095941543579,0.7810032963752747,0.6971648335456848
033978,0.9673665165901184,0.967903196811676,0.8748590350151062,0.9546061158180237
033980,0.510498046875,0.5149862766265869,0.49935534596443176,0.5357897281646729
033981,0.9673665165901184,0.9678029417991638,0.8748590350151062,0.7803939580917358
033984,0.962158203125,0.9623294472694397,0.8420895934104919,0.6575993299484253
033985,0.951904296875,0.9599641561508179,0.6230928897857666,0.7040862441062927
033986,0.432373046875,0.4404652714729309,0.4040961265563965,0.7400063872337341
033990,0.9673665165901184,0.9677287340164185,1.0,0.9338516592979431
033991,0.968017578125,0.9680595397949219,1.0,0.8912128210067749
033992,0.967041015625,0.9676712155342102,0.8122885227203369,0.9016565680503845
033993,0.9673665165901184,0.9677414298057556,0.8748590350151062,0.7175629734992981
033994,0.701904296875,0.7076204419136047,0.5307213068008423,0.6390606760978699
033995,0.9673665165901184,0.9675124287605286,1.0,0.8615096211433411
033998,0.967041015625,0.9676991701126099,0.8122885227203369,0.8817619681358337
034000,0.9375,0.9486585259437561,0.5364049673080444,0.6666001677513123
034001,0.365234375,0.4357440769672394,0.3236317038536072,0.5132297277450562
034003,0.967041015625,0.9675225019454956,0.8122885227203369,0.7315329313278198
034004,0.469970703125,0.475307434797287,0.5407800078392029,0.5781735777854919
034005,0.712158203125,0.7126082181930542,0.7497180104255676,0.8785403370857239
034006,0.968017578125,0.9680452942848206,1.0,0.8526394963264465
034007,0.9673665165901184,0.9677679538726807,0.8748590350151062,0.9257834553718567
034008,0.14453125,0.17547607421875,0.16220630705356598,0.2004707008600235
034010,0.619873046875,0.6265278458595276,0.4733748733997345,0.5608293414115906
034011,0.959228515625,0.9598523378372192,0.7631344795227051,0.8033468127250671
034013,0.967041015625,0.9673737287521362,1.0,0.9525520205497742
034014,0.968017578125,0.968050479888916,1.0,0.8448005318641663
034020,0.953369140625,0.9602702260017395,0.7479812502861023,0.8545467853546143
034021,0.953369140625,0.9602733850479126,0.7479812502861023,0.9399373531341553
034022,0.9668782353401184,0.9676808714866638,0.7810032963752747,0.8654029369354248
034023,0.712158203125,0.71254563331604,0.7497180104255676,0.6598150730133057
034024,0.947998046875,0.9536322951316833,0.6841284036636353,0.8047870397567749
034026,0.95703125,0.9576892852783203,0.7039180397987366,0.6708237528800964
034027,0.968017578125,0.9680617451667786,1.0,0.8795400261878967
034028,0.94140625,0.9477270841598511,0.5900454521179199,0.5864136815071106
034030,0.518798828125,0.5455285906791687,0.496870219707489,0.47013425827026367
034032,0.3599446713924408,0.4491097331047058,0.26257050037384033,0.3579757511615753
034033,0.968017578125,0.9680621027946472,1.0,0.92205411195755
034034,0.9673665165901184,0.967907726764679,0.8748590350151062,0.9313634037971497
034037,0.962158203125,0.9624411463737488,0.9625431895256042,0.9234369397163391
034038,0.580322265625,0.6154680252075195,0.86592036485672,0.9812507033348083
034039,0.967041015625,0.9675636887550354,0.9284793138504028,0.9281330704689026
034042,0.393798828125,0.39844053983688354,0.8579513430595398,0.6873599290847778
034043,0.9375,0.9524902105331421,0.5364049673080444,0.7705309987068176
034045,0.968017578125,0.9680601358413696,1.0,0.8963050246238708
034047,0.9466145634651184,0.9532062411308289,0.5787770748138428,0.8286237716674805
034048,0.9673665165901184,0.9677844643592834,0.8748590350151062,0.8174029588699341
034050,0.968017578125,0.9680345058441162,1.0,0.8291444778442383
034051,0.9466145634651184,0.9513088464736938,0.6615661382675171,0.609467625617981
034052,0.967041015625,0.9674566984176636,0.8122885227203369,0.7971385717391968
034054,0.962158203125,0.9623197317123413,0.8420895934104919,0.6938488483428955
034055,0.455078125,0.5307188034057617,0.23873552680015564,0.3071881830692291
034056,0.968017578125,0.9680290222167969,1.0,0.9202179312705994
034058,0.9673665165901184,0.9678123593330383,0.8748590350151062,0.9383851885795593
034060,0.505615234375,0.5115722417831421,0.427834689617157,0.43413814902305603
034061,0.3599446713924408,0.4150257706642151,0.40125197172164917,0.6082482933998108
034062,0.943115234375,0.9528250098228455,0.5359453558921814,0.7235357761383057
034063,0.951171875,0.9576950669288635,0.6074502468109131,0.7040858268737793
034065,0.9668782353401184,0.9676229953765869,0.7810032963752747,0.6970488429069519
034068,0.957763671875,0.9581799507141113,0.8271697163581848,0.857582151889801
034070,0.959228515625,0.959991991519928,0.7631344795227051,0.8386383056640625
034071,0.701171875,0.7063874006271362,0.5887562036514282,0.6146604418754578
034072,0.956298828125,0.959737241268158,0.7169486284255981,0.7929145097732544
034074,0.263671875,0.2884277403354645,0.7653606534004211,0.8871368169784546
034075,0.1875,0.1875,0.14342738687992096,0.1350831836462021
034076,0.469970703125,0.4799743890762329,0.3877114951610565,0.6054630875587463
034078,0.701171875,0.7056179046630859,0.5887562036514282,0.6279610991477966
034080,0.499755859375,0.5613164901733398,0.7271926999092102,0.9026402831077576
034081,0.959228515625,0.9596244096755981,0.7631344795227051,0.7631124258041382
034083,0.943115234375,0.9516342282295227,0.6126077175140381,0.7742934823036194
034084,0.505615234375,0.5151866674423218,0.37429502606391907,0.4700465798377991
034087,0.95703125,0.9579711556434631,0.7039180397987366,0.7492483258247375
034088,0.703369140625,0.7073588967323303,0.6423966884613037,0.732107937335968
034089,0.431884765625,0.47061699628829956,0.7318407297134399,0.7719982862472534
034090,0.9673665165901184,0.9673665165901184,1.0,1.0
034091,0.14453125,0.24773207306861877,0.14805001020431519,0.31183555722236633
034092,0.703369140625,0.707724928855896,0.6423966884613037,0.6621215343475342
034093,0.956298828125,0.9610893726348877,0.8195018768310547,0.9491141438484192
034094,0.9668782353401184,0.9672731161117554,0.892719030380249,0.8399736881256104
034095,0.959228515625,0.9596116542816162,0.7631344795227051,0.7103847861289978
034096,0.580322265625,0.5936192274093628,1.0,0.9864590167999268
034097,0.953369140625,0.9592246413230896,0.7479812502861023,0.9171934723854065
034099,0.966796875,0.967294454574585,0.7653606534004211,0.6113483309745789
034101,0.9444172978401184,0.9514248967170715,0.6219719052314758,0.5977795720100403
034102,0.943359375,0.9503368139266968,0.7371450066566467,0.7742302417755127
034103,0.3599446713924408,0.43100041151046753,0.36623337864875793,0.6183900833129883
034104,0.967041015625,0.967809796333313,0.8122885227203369,0.889201283454895
034105,0.4375,0.4936813414096832,0.21899673342704773,0.25895926356315613
034106,0.4700520932674408,0.4700520932674408,0.4347934126853943,0.3823663592338562
034107,0.5757649540901184,0.582718551158905,0.49943602085113525,0.7302573323249817
034108,0.365234375,0.4232204556465149,0.26521679759025574,0.3665674030780792
034112,0.957763671875,0.9583910703659058,0.7236568927764893,0.8347722291946411
034113,0.9673665165901184,0.967894971370697,0.8748590350151062,0.9220412373542786
034116,0.946533203125,0.9549854397773743,0.575423002243042,0.7784301042556763
034117,0.659423828125,0.6631883382797241,0.6764605641365051,0.7206418514251709
034122,0.9673665165901184,0.9678901433944702,0.8748590350151062,0.8956306576728821
034123,0.9673665165901184,0.9676758646965027,1.0,0.9560627937316895
034128,0.959228515625,0.9598469138145447,0.7631344795227051,0.8695275187492371
034129,0.962158203125,0.9626957178115845,0.8420895934104919,0.9031936526298523
034130,0.953369140625,0.9547080993652344,1.0,1.0
034131,0.962158203125,0.962321400642395,0.8420895934104919,0.7871712446212769
034132,0.951171875,0.9575704336166382,0.694340705871582,0.7487892508506775
034133,0.0,0.0162527896463871,0.0,0.018994206562638283
034136,0.962158203125,0.9626336097717285,0.8420895934104919,0.8619687557220459
034139,0.966796875,0.967425525188446,0.7653606534004211,0.7561145424842834
034140,0.959228515625,0.9597527980804443,0.7631344795227051,0.6591360569000244
034141,0.580322265625,0.6325814127922058,0.5636333227157593,0.7876765131950378
034142,0.9444172978401184,0.954832136631012,0.544137716293335,0.7506324648857117
034144,0.953369140625,0.9601531028747559,0.7479812502861023,0.8538118004798889
034146,0.966796875,0.9674589037895203,0.7653606534004211,0.860637366771698
034147,0.967041015625,0.9677910804748535,0.8122885227203369,0.9540433287620544
034148,0.9375,0.940234363079071,0.5364049673080444,0.44924086332321167
034149,0.962158203125,0.962554931640625,0.9625431895256042,0.9392288327217102
034150,0.946533203125,0.9547841548919678,0.575423002243042,0.8205054998397827
034153,0.633056640625,0.6378422379493713,0.5128524899482727,0.6194721460342407
034155,0.957763671875,0.9586556553840637,0.7236568927764893,0.8348939418792725
034157,0.9673665165901184,0.9678186774253845,0.8748590350151062,0.8237242698669434
034158,0.956298828125,0.9611713290214539,0.7169486284255981,0.866936981678009
034160,0.947998046875,0.9557228088378906,0.6841284036636353,0.901265025138855
034162,0.712158203125,0.7124930024147034,0.7497180104255676,0.66651451587677
034164,0.703369140625,0.7076938152313232,0.5620065331459045,0.6083202958106995
034165,0.518798828125,0.577538251876831,0.3251410126686096,0.5321195125579834
034166,0.633056640625,0.6387420296669006,0.5128524899482727,0.6356679201126099
034169,0.968017578125,0.968051016330719,1.0,0.7310293316841125
034173,0.510498046875,0.5173040628433228,0.43686550855636597,0.6677595376968384
034174,0.490234375,0.5891270637512207,0.3180091083049774,0.5098105072975159
034175,0.953369140625,0.9585229754447937,0.912726640701294,0.9762853980064392
034179,0.606689453125,0.6381564736366272,0.5334192514419556,0.6849126219749451
034182,0.95703125,0.9576523900032043,0.8046074509620667,0.7359092235565186
034186,0.967041015625,0.967693030834198,0.8122885227203369,0.9006140828132629
034187,0.967041015625,0.9675712585449219,0.8122885227203369,0.8191737532615662
034188,0.659423828125,0.6642674207687378,0.5918076038360596,0.8031878471374512
034189,0.967041015625,0.9674513339996338,0.8122885227203369,0.8172749280929565
034190,0.571533203125,0.5754566192626953,0.6093400716781616,0.5949138402938843
034191,0.14453125,0.24540124833583832,0.12132726609706879,0.29900598526000977
034192,0.510498046875,0.5154126286506653,0.49935534596443176,0.5404615998268127
034193,0.706298828125,0.7111777067184448,0.6245770454406738,0.7957609295845032
034194,0.962158203125,0.9623358249664307,0.9625431895256042,0.9639703631401062
034195,0.560546875,0.6218012571334839,0.3571682572364807,0.4779081642627716
034197,0.947998046875,0.9531917572021484,0.6841284036636353,0.7258977293968201
034198,0.9507649540901184,0.9559365510940552,0.7292529344558716,0.8442972302436829
034199,0.23828125,0.3176601529121399,0.16092148423194885,0.24862809479236603
034200,0.47265625,0.5322845578193665,0.6580725908279419,0.8684450387954712
034201,0.4778645932674408,0.4854612648487091,0.4055802822113037,0.5494969487190247
034203,0.712158203125,0.7126052379608154,0.7497180104255676,0.8347294926643372
034204,0.957763671875,0.9580716490745544,0.7236568927764893,0.6997998952865601
034205,0.9668782353401184,0.9675872325897217,0.7810032963752747,0.8441749811172485
034207,0.701171875,0.70501708984375,0.7184317708015442,0.8499848246574402
034209,0.957763671875,0.9585663080215454,0.7236568927764893,0.8084345459938049
034210,0.150390625,0.21061277389526367,0.12623168528079987,0.24544882774353027
034211,0.46875,0.4838410019874573,0.29608190059661865,0.44750291109085083
034216,0.197998046875,0.2731282114982605,0.2100154310464859,0.3999938666820526
034219,0.946533203125,0.9540985822677612,0.6577322483062744,0.7705614566802979
034220,0.2122395932674408,0.2861523926258087,0.19284793734550476,0.34384116530418396
034221,0.943359375,0.9536190629005432,0.5284951329231262,0.6911476850509644
034222,0.947998046875,0.952400803565979,0.5985158681869507,0.5976836681365967
034223,0.08984375,0.1644989550113678,0.20503923296928406,0.4905898869037628
034224,0.505615234375,0.5149730443954468,0.37429502606391907,0.5107102990150452
034227,0.4700520932674408,0.4841054379940033,0.3563140034675598,0.6737918257713318
034229,0.968017578125,0.968060314655304,1.0,0.9151090383529663
034230,0.701904296875,0.7083335518836975,0.5307213068008423,0.5607324242591858
034231,0.51953125,0.5806655883789062,0.3754834830760956,0.5803346037864685
034236,0.956298828125,0.9611363410949707,0.7169486284255981,0.8849728107452393
034237,0.14453125,0.3033323585987091,0.1061442568898201,0.3481535017490387
034242,0.568359375,0.570263683795929,0.5438850522041321,0.5153434872627258
034243,0.4700520932674408,0.4790271818637848,0.3117245137691498,0.43477901816368103
034244,0.568359375,0.5775050520896912,0.3899376392364502,0.492850124835968
034245,0.263671875,0.3688269853591919,0.17496776580810547,0.3716922998428345
034250,0.947998046875,0.951513409614563,0.6841284036636353,0.5996874570846558
034251,0.571533203125,0.5793491005897522,0.49935534596443176,0.6358132362365723
034252,0.1875,0.2963623106479645,0.20111946761608124,0.35415342450141907
034253,0.606689453125,0.606689453125,1.0,1.0
034254,0.9673665165901184,0.9678027629852295,0.8748590350151062,0.9448167681694031
034255,0.30078125,0.341204434633255,0.3454500138759613,0.4486362338066101
034257,0.968017578125,0.9680213928222656,1.0,1.0
034259,0.21875,0.3561893403530121,0.13817155361175537,0.5097629427909851
034260,0.344482421875,0.4024142622947693,0.2789551615715027,0.4978271424770355
034261,0.9375,0.9397542476654053,0.7171369194984436,0.7176265716552734
034262,0.968017578125,0.9680627584457397,1.0,0.9951706528663635
034265,0.946533203125,0.9528329968452454,0.575423002243042,0.6017968058586121
034266,0.946533203125,0.9528254270553589,0.6577322483062744,0.7527621388435364
034268,0.953369140625,0.957489013671875,0.7479812502861023,0.8135951161384583
034274,0.9673665165901184,0.9678041934967041,0.8748590350151062,0.9419065117835999
034275,0.633056640625,0.6381000876426697,0.5128524899482727,0.6202392578125
034276,0.951904296875,0.9568610191345215,0.7122209072113037,0.6817777156829834
034277,0.706298828125,0.7103437185287476,0.7139173746109009,0.808685839176178
034281,0.9466145634651184,0.9485371708869934,0.6615661382675171,0.5741011500358582
034283,0.0625,0.1527247428894043,0.06545499712228775,0.1896381378173828
034284,0.967041015625,0.967642068862915,0.8122885227203369,0.8043198585510254
034285,0.9673665165901184,0.9674955606460571,0.8748590350151062,0.5848749876022339
034286,0.3125,0.3179055154323578,0.2682024836540222,0.3292073905467987
034287,0.388427734375,0.3981063663959503,0.3251410126686096,0.592001736164093
034288,0.2122395932674408,0.2622273862361908,0.19284793734550476,0.2435317486524582
034289,0.959228515625,0.9598729610443115,0.7631344795227051,0.8554343581199646
034290,0.946533203125,0.9565195441246033,0.6577322483062744,0.8700044751167297
034291,0.966796875,0.9672653079032898,0.8748388290405273,0.9688917994499207
034294,0.9375,0.9468231201171875,0.5364049673080444,0.659336268901825
034295,0.35546875,0.3612809181213379,0.3039627969264984,0.34861913323402405
034296,0.940673828125,0.9482185244560242,0.5046601295471191,0.5316832661628723
034300,0.490234375,0.5232620239257812,0.38805168867111206,0.4054828882217407
034301,0.701171875,0.7096879482269287,0.5150786638259888,0.6364078521728516
034302,0.9673665165901184,0.9677597880363464,1.0,0.9944354295730591
034304,0.968017578125,0.9680550694465637,1.0,0.9114001989364624
034307,0.966796875,0.9677497148513794,0.7653606534004211,0.9077709317207336
034311,0.946533203125,0.9537657499313354,0.6577322483062744,0.8593844771385193
034312,0.9673665165901184,0.9677621126174927,0.8748590350151062,0.8581095337867737
034315,0.94140625,0.9503605961799622,0.5900454521179199,0.8400390148162842
034316,0.959228515625,0.9598003029823303,0.7631344795227051,0.8996744155883789
034317,0.956298828125,0.9610985517501831,0.7169486284255981,0.8847870230674744
034319,0.940673828125,0.9411029815673828,0.8099276423454285,0.7932075262069702
034320,0.633056640625,0.6384124755859375,0.5862115621566772,0.7297208905220032
034325,0.388427734375,0.3981725573539734,0.3716495931148529,0.6777365207672119
034327,0.712158203125,0.7125508189201355,0.7497180104255676,0.7557789087295532
034330,0.9673665165901184,0.967754065990448,0.8748590350151062,0.9010871052742004
034332,0.962158203125,0.9626897573471069,0.8420895934104919,0.8855366706848145
034333,0.9466145634651184,0.9552673697471619,0.5787770748138428,0.7950757741928101
034334,0.263671875,0.3026107847690582,0.37880125641822815,0.5115875005722046
034335,0.619873046875,0.6256022453308105,0.5410870313644409,0.734277606010437
034336,0.431884765625,0.4873588979244232,0.4763599932193756,0.6963123083114624
034337,0.967041015625,0.9674139022827148,0.9284793138504028,0.8315565586090088
034338,0.47265625,0.47265625,0.8178747296333313,0.8178747296333313
034339,0.21875,0.2573590874671936,0.42495885491371155,0.5741242170333862
034341,0.44140625,0.4432104229927063,0.570875883102417,0.5906935334205627
034342,0.967041015625,0.9677045345306396,0.8122885227203369,0.8981531262397766
034347,0.706298828125,0.7099122405052185,0.7139173746109009,0.7868634462356567
034348,0.706298828125,0.7111755013465881,0.6245770454406738,0.8191417455673218
034351,0.9466145634651184,0.9550848007202148,0.5787770748138428,0.7405698895454407
034352,0.943359375,0.949937641620636,0.5284951329231262,0.6334667205810547
034354,0.212890625,0.24859619140625,0.67329341173172,0.8453658819198608
034356,0.1875,0.31635743379592896,0.10728099197149277,0.22529633343219757
034358,0.967041015625,0.96781325340271,0.8122885227203369,0.9014763236045837
034362,0.508056640625,0.5120286345481873,0.5334192514419556,0.6241928935050964
034363,0.432373046875,0.4377715289592743,0.4040961265563965,0.44461488723754883
034364,0.580322265625,0.630796492099762,0.4618985950946808,0.6856019496917725
034365,0.939453125,0.943115234375,0.7848228216171265,0.8828869462013245
034368,0.5694172978401184,0.5767824649810791,0.4993056654930115,0.7002636194229126
034369,0.5757649540901184,0.5820616483688354,0.49943602085113525,0.7305997014045715
034371,0.94140625,0.9446461796760559,0.8970906734466553,0.9497226476669312
034374,0.619873046875,0.619873046875,0.5410870313644409,0.47553887963294983
034375,0.4375,0.490234375,0.33466389775276184,0.5419629216194153
034376,0.560546875,0.5988683104515076,0.4082580804824829,0.3978250324726105
034378,0.9388020634651184,0.9527627825737,0.5969816446304321,0.8720165491104126
034379,0.951904296875,0.9599958062171936,0.6230928897857666,0.8560163974761963
034380,0.09375,0.18896484375,0.0676867738366127,0.20616081357002258
034383,0.0,0.07164132595062256,0.0,0.06512420624494553
034384,0.968017578125,0.9680516123771667,1.0,0.773040771484375
034385,0.703369140625,0.7072054147720337,0.6423966884613037,0.676703929901123
034389,0.966796875,0.9672542810440063,0.7653606534004211,0.6771245002746582
034390,0.943359375,0.9525560736656189,0.6040917634963989,0.8297642469406128
034391,0.706298828125,0.7102388739585876,0.6245770454406738,0.7645456194877625
034393,0.47265625,0.5844365358352661,0.2659246027469635,0.5282019972801208
034395,0.263671875,0.37476903200149536,0.15307211875915527,0.31619665026664734
034396,0.455078125,0.5053686499595642,0.5907889604568481,0.8221597075462341
034397,0.956298828125,0.956298828125,1.0,0.6976874470710754
034399,0.0,0.0,0.0,0.0
034400,0.953369140625,0.9585853815078735,0.6543781161308289,0.80097895860672
034401,0.9668782353401184,0.9677773714065552,0.7810032963752747,0.941524088382721
034402,0.956298828125,0.9610915780067444,0.7169486284255981,0.8089563846588135
034403,0.943115234375,0.949376106262207,0.6597968339920044,0.7972270846366882
034404,0.9466145634651184,0.9506963491439819,0.8072783350944519,0.9133036732673645
034405,0.12109375,0.2109527587890625,0.24055138230323792,0.5384505987167358
034406,0.432373046875,0.43727317452430725,0.4618985950946808,0.5322675704956055
034407,0.9673665165901184,0.967717707157135,0.8748590350151062,0.8012188673019409
034408,0.0,0.06210937350988388,0.0,0.06696447730064392
034409,0.966796875,0.9672393798828125,0.8748388290405273,0.7175144553184509
034410,0.94140625,0.9512768387794495,0.5162065625190735,0.6318116784095764
034415,0.9507649540901184,0.9544486999511719,0.6379934549331665,0.6555529236793518
034417,0.962158203125,0.9625433683395386,0.8420895934104919,0.8417466878890991
034418,0.959228515625,0.9596452713012695,0.7631344795227051,0.7295593619346619
034420,0.712158203125,0.712158203125,0.8569586873054504,0.8569586873054504
034421,0.1875,0.2721354067325592,0.16310739517211914,0.3992595970630646
034422,0.505615234375,0.505615234375,0.6878681778907776,0.6878681778907776
034423,0.9673665165901184,0.9678186178207397,0.8748590350151062,0.9498318433761597
034425,0.365234375,0.3977838158607483,0.4972013831138611,0.5762515068054199
034432,0.946533203125,0.956657886505127,0.575423002243042,0.7372027635574341
034433,0.9444172978401184,0.9541746973991394,0.6219719052314758,0.8305996060371399
034435,0.0,0.1593126505613327,0.0,0.3307260274887085
034437,0.9388020634651184,0.9529513120651245,0.48492133617401123,0.6865573525428772
034438,0.212890625,0.230743408203125,0.11359453201293945,0.095695860683918
034439,0.0,0.008928571827709675,0.0,0.03893350437283516
034441,0.968017578125,0.9680460691452026,1.0,0.7422934174537659
034443,0.706298828125,0.7095590829849243,0.7139173746109009,0.8134540319442749
034444,0.2774251401424408,0.4301176965236664,0.1687147468328476,0.4647639989852905
034445,0.95703125,0.9575629234313965,0.7039180397987366,0.7020608186721802
034448,0.1875,0.32341670989990234,0.20111946761608124,0.6448278427124023
034449,0.9673665165901184,0.9676358103752136,0.8748590350151062,0.7280808091163635
034450,0.967041015625,0.9673619270324707,0.8122885227203369,0.7676347494125366
034451,0.488037109375,0.5915309190750122,0.3265250623226166,0.5743278861045837
034454,0.968017578125,0.9680643081665039,1.0,0.8725468516349792
034457,0.393798828125,0.484344482421875,0.2789551615715027,0.6034089922904968
034458,0.9668782353401184,0.9677622318267822,0.7810032963752747,0.9212526679039001
034460,0.9673665165901184,0.9679077863693237,0.8748590350151062,0.9444234371185303
034461,0.951171875,0.9520645141601562,0.8472716808319092,0.7201552987098694
034462,0.962158203125,0.9626902341842651,0.8420895934104919,0.8731096386909485
034463,0.951171875,0.9594802856445312,0.694340705871582,0.9210178852081299
034464,0.0,0.1114211305975914,0.0,0.1526389718055725
034470,0.21875,0.24936065077781677,0.42495885491371155,0.6209276914596558
034471,0.388427734375,0.40007972717285156,0.3251410126686096,0.6818055510520935
034472,0.4375,0.48298341035842896,0.5419421792030334,0.740253746509552
034473,0.9673665165901184,0.9677835702896118,0.8748590350151062,0.902621328830719
034474,0.95703125,0.9575007557868958,0.8046074509620667,0.7640140652656555
034475,0.560546875,0.6295157670974731,0.4981783330440521,0.7403947710990906
034476,0.9673665165901184,0.9677233099937439,1.0,0.9339390993118286
034478,0.1458333432674408,0.17591626942157745,0.3367719352245331,0.5349434614181519
034479,0.659423828125,0.6637612581253052,0.5918076038360596,0.8161827325820923
034480,0.47265625,0.5520168542861938,0.3709116578102112,0.6427842378616333
034481,0.619873046875,0.6224085688591003,0.6602633595466614,0.6025823950767517
034482,0.39453125,0.3968658447265625,0.5199966430664062,0.6207665801048279
034483,0.967041015625,0.9674216508865356,0.9284793138504028,0.8003342747688293
034484,0.943115234375,0.9515881538391113,0.6126077175140381,0.7719083428382874
034485,0.956298828125,0.9577407836914062,1.0,0.9798973798751831
034487,0.951904296875,0.9599544405937195,0.6230928897857666,0.8700798749923706
034488,0.94140625,0.94856858253479,0.5900454521179199,0.674859344959259
034489,0.951171875,0.9578993916511536,0.694340705871582,0.8856654763221741
034493,0.95703125,0.9570661187171936,0.8046074509620667,0.6807548403739929
034495,0.2044270783662796,0.3101501762866974,0.3367719352245331,0.6710811853408813
034499,0.4375,0.4818572998046875,0.30545666813850403,0.37705227732658386
034500,0.962158203125,0.9625066518783569,0.9625431895256042,0.9587681889533997
034501,0.300537109375,0.40304458141326904,0.30181336402893066,0.6249805092811584
034502,0.956298828125,0.9584781527519226,1.0,0.9642098546028137
034503,0.4375,0.5113332867622375,0.4692787528038025,0.6782031059265137
034504,0.633056640625,0.6386481523513794,0.5128524899482727,0.7218002080917358
034506,0.9375,0.9459519386291504,0.5777241587638855,0.8050813674926758
034507,0.0,0.24300362169742584,0.0,0.41722697019577026
034508,0.508056640625,0.5118447542190552,0.5334192514419556,0.5918861627578735
034509,0.701904296875,0.7039732933044434,0.7402501106262207,0.7448447942733765
034510,0.703369140625,0.7076173424720764,0.5620065331459045,0.5651580095291138
034512,0.34765625,0.3564300537109375,0.3358892798423767,0.5951034426689148
034514,0.0,0.2380610853433609,0.0,0.29330697655677795
034515,0.263671875,0.29461669921875,0.7653606534004211,0.9674680233001709
034516,0.47265625,0.4748760461807251,0.5961002111434937,0.6536527276039124
034517,0.962158203125,0.962691068649292,0.8420895934104919,0.9585545063018799
034518,0.46875,0.4710937440395355,0.4524630308151245,0.5079483389854431
034519,0.956298828125,0.9598603248596191,1.0,0.9530357718467712
034520,0.947998046875,0.9490923881530762,0.5985158681869507,0.43684831261634827
034524,0.12109375,0.136962890625,0.24055138230323792,0.2577788829803467
034525,0.518798828125,0.5675232410430908,0.8046129941940308,0.9348418116569519
034526,0.967041015625,0.967041015625,0.9284793138504028,0.8874749541282654
034527,0.580322265625,0.6432742476463318,0.4618985950946808,0.7733753323554993
034528,0.388427734375,0.3981741666793823,0.3251410126686096,0.5384395122528076
034532,0.344482421875,0.4169731140136719,0.31885725259780884,0.5329554080963135
034533,0.951171875,0.9566343426704407,0.8472716808319092,0.7788399457931519
034534,0.712158203125,0.7124800086021423,0.8569586873054504,0.8203270435333252
034536,0.9375,0.9375,0.5364049673080444,0.4124077558517456
034538,0.9507649540901184,0.954612135887146,0.7292529344558716,0.8537391424179077
034539,0.1458333432674408,0.2817109525203705,0.12516115605831146,0.435067355632782
034540,0.580322265625,0.5948834419250488,0.86592036485672,0.9261993169784546
034541,0.46875,0.48371848464012146,0.29608190059661865,0.4075203537940979
034542,0.946533203125,0.9539536833763123,0.6577322483062744,0.71031254529953
034543,0.510498046875,0.518287181854248,0.49935534596443176,0.6546913385391235
034544,0.946533203125,0.9496564865112305,0.6577322483062744,0.6303476691246033
034545,0.953369140625,0.9568748474121094,0.912726640701294,0.9824068546295166
034546,0.968017578125,0.9680618047714233,1.0,0.952261745929718
034547,0.580322265625,0.6208061575889587,0.5636333227157593,0.6394129395484924
034550,0.5757649540901184,0.5781784653663635,0.5708760023117065,0.5648636817932129
034553,0.606689453125,0.6246089935302734,0.6509066820144653,0.5986104607582092
034555,0.5694172978401184,0.5809851288795471,0.4055802822113037,0.6174436211585999
034556,0.947998046875,0.9484100341796875,0.6841284036636353,0.669846773147583
034558,0.3599446713924408,0.43227964639663696,0.36623337864875793,0.5149176716804504
034559,0.14453125,0.26977643370628357,0.12132726609706879,0.31014928221702576
034562,0.606689453125,0.6459234356880188,0.46666663885116577,0.7053712606430054
034563,0.9673665165901184,0.9678153991699219,0.8748590350151062,0.8140016794204712
034564,0.606689453125,0.627785325050354,0.6509066820144653,0.7337608337402344
034565,0.9673665165901184,0.967683732509613,0.8748590350151062,0.7462267279624939
034566,0.703369140625,0.7038154602050781,0.6423966884613037,0.6205421090126038
034567,0.1875,0.1959635466337204,0.31939393281936646,0.35731738805770874
034570,0.943359375,0.9475250244140625,0.8076295852661133,0.843553364276886
034573,0.9444172978401184,0.9487700462341309,0.8315341472625732,0.8891488313674927
034574,0.9673665165901184,0.967400848865509,1.0,0.9578917622566223
034575,0.962158203125,0.9626997113227844,0.8420895934104919,0.9017354249954224
034577,0.3059895932674408,0.3944830000400543,0.2033541053533554,0.3472362756729126
034578,0.706298828125,0.706298828125,0.871160089969635,0.8246655464172363
034580,0.466064453125,0.5581788420677185,0.25437816977500916,0.5419816374778748
034581,0.61328125,0.6192587614059448,0.4536360800266266,0.6963277459144592
034582,0.431884765625,0.4838601350784302,0.3415256440639496,0.5917350053787231
034589,0.959228515625,0.9597430229187012,0.7631344795227051,0.896671712398529
034590,0.703369140625,0.7079311609268188,0.6423966884613037,0.6964913010597229
034594,0.701904296875,0.7085245847702026,0.5307213068008423,0.5681199431419373
034596,0.35546875,0.36362960934638977,0.2659246027469635,0.32209908962249756
034597,0.9507649540901184,0.9550040364265442,0.6379934549331665,0.7654275298118591
034600,0.9673665165901184,0.96773761510849,1.0,0.9039385318756104
034602,0.560546875,0.5894761085510254,0.7653606534004211,0.9360272288322449
034603,0.5757649540901184,0.5785586833953857,0.5708760023117065,0.5292408466339111
034604,0.47265625,0.580256462097168,0.4063775837421417,0.6804487705230713
034605,0.943115234375,0.9504820704460144,0.6126077175140381,0.8062499165534973
034607,0.03125,0.2196589857339859,0.02753167226910591,0.4862957298755646
034609,0.219970703125,0.2473292350769043,0.5462626218795776,0.6639524698257446
034610,0.490234375,0.5544497966766357,0.3180091083049774,0.40805670619010925
034611,0.9466145634651184,0.9466145634651184,0.6615661382675171,0.5322932600975037
034612,0.02083333395421505,0.1306966096162796,0.028747543692588806,0.3008127510547638
034613,0.9466145634651184,0.9536019563674927,0.6615661382675171,0.8625971078872681
034616,0.556884765625,0.5875683426856995,0.3877114951610565,0.3458489179611206
034617,0.956298828125,0.9597470760345459,0.7169486284255981,0.7087318301200867
034618,0.61328125,0.6205149292945862,0.4536360800266266,0.6047847867012024
034619,0.5757649540901184,0.582611083984375,0.5708760023117065,0.7500277161598206
034621,0.584228515625,0.5847213864326477,0.6245770454406738,0.609970211982727
034622,0.957763671875,0.9584972262382507,0.7236568927764893,0.8811582922935486
034623,0.9673665165901184,0.967816174030304,0.8748590350151062,0.8734368085861206
034625,0.953369140625,0.9576478004455566,0.7479812502861023,0.8511586785316467
034626,0.14453125,0.3046221137046814,0.12132726609706879,0.41174501180648804
034627,0.967041015625,0.967315137386322,1.0,0.9638556241989136
034628,0.0625,0.19601298868656158,0.10055973380804062,0.4886573851108551
034630,0.300537109375,0.32057666778564453,0.6655102372169495,0.7321704030036926
034631,0.323974609375,0.42792218923568726,0.2550044059753418,0.568920910358429
034632,0.5694172978401184,0.5781175494194031,0.4055802822113037,0.5302079916000366
034633,0.388427734375,0.3981742560863495,0.3716495931148529,0.6543280482292175
034642,0.9507649540901184,0.9551113247871399,0.6379934549331665,0.5932191610336304
034643,0.9668782353401184,0.9676278233528137,0.7810032963752747,0.8487104177474976
034644,0.520263671875,0.52098548412323,0.5620065331459045,0.754136323928833
034645,0.703369140625,0.7096646428108215,0.5620065331459045,0.7906794548034668
034646,0.23828125,0.295846164226532,0.43299248814582825,0.5903164744377136
034647,0.260498046875,0.32409751415252686,0.8026120662689209,0.9423754811286926
034648,0.300537109375,0.3444836437702179,0.5354781746864319,0.6335009932518005
034649,0.956298828125,0.9598217010498047,1.0,0.9649695754051208
034650,0.943115234375,0.9547378420829773,0.5359453558921814,0.7573215365409851
034651,0.14453125,0.30459141731262207,0.12132726609706879,0.4657036364078522
034652,0.08984375,0.1265411376953125,0.3333333134651184,0.6012547016143799
034653,0.959228515625,0.9597207903862,0.7631344795227051,0.8258203268051147
034655,0.267578125,0.3701590299606323,0.23635835945606232,0.566555380821228
034658,0.951171875,0.9596976637840271,0.6074502468109131,0.7896081209182739
034659,0.659423828125,0.6629226207733154,0.6764605641365051,0.7342742681503296
034660,0.968017578125,0.9680395722389221,1.0,0.7447289228439331
034662,0.953369140625,0.9591882824897766,0.6543781161308289,0.6729450821876526
034663,0.9375,0.9416426420211792,0.6545500159263611,0.5896608829498291
034666,0.9673665165901184,0.9675919413566589,0.8748590350151062,0.7337223291397095
034667,0.939453125,0.9412841796875,0.8987017273902893,0.9601421356201172
034668,0.966796875,0.9672927856445312,0.8748388290405273,0.9385455846786499
034675,0.9507649540901184,0.9538862109184265,0.8898733854293823,0.9080106019973755
034676,0.0,0.1648341566324234,0.0,0.34730562567710876
034678,0.947998046875,0.9504013061523438,0.8348100185394287,0.6783671379089355
034680,0.09375,0.15585124492645264,0.20151513814926147,0.49775460362434387
034682,0.0,0.133928582072258,0.0,0.18957991898059845
034683,0.510498046875,0.516404390335083,0.43686550855636597,0.5875318050384521
034684,0.968017578125,0.9680555462837219,1.0,0.9352431893348694
034685,0.39453125,0.40059491991996765,0.4261382520198822,0.6408793330192566
034686,0.701171875,0.704727828502655,0.7184317708015442,0.7787536382675171
034688,0.701171875,0.7031768560409546,0.7184317708015442,0.7376516461372375
034690,0.490234375,0.5455780029296875,0.6884825229644775,0.9016138911247253
034692,0.947998046875,0.9548681378364563,0.6841284036636353,0.8093112707138062
034693,0.943359375,0.9453786015510559,0.8076295852661133,0.7297698855400085
034695,0.95703125,0.957743763923645,0.7039180397987366,0.7011025547981262
034696,0.951904296875,0.9558110237121582,0.6230928897857666,0.6131200194358826
034697,0.9673665165901184,0.9673665165901184,1.0,1.0
034698,0.518798828125,0.5894883275032043,0.496870219707489,0.7423760294914246
034700,0.431884765625,0.45639485120773315,0.4763599932193756,0.5264407396316528
034701,0.712158203125,0.7126302719116211,0.7497180104255676,0.8698431253433228
034702,0.0,0.012500000186264515,0.0,0.09364787489175797
034703,0.967041015625,0.9677364230155945,0.8122885227203369,0.9030714631080627
034704,0.953369140625,0.953369140625,1.0,1.0
034707,0.959228515625,0.9595257043838501,0.8722942471504211,0.9017689228057861
034708,0.505615234375,0.5125186443328857,0.5220667123794556,0.6406798362731934
034711,0.939453125,0.9477758407592773,0.6820816993713379,0.8472294807434082
034714,0.5757649540901184,0.5826501846313477,0.5708760023117065,0.6958076357841492
034715,0.967041015625,0.9671897888183594,0.9284793138504028,0.816274106502533
034716,0.95703125,0.95703125,0.7039180397987366,0.4839544892311096
034719,0.02083333395421505,0.0501302108168602,0.028747543692588806,0.09018804132938385
034720,0.95703125,0.9579852819442749,0.7039180397987366,0.7984593510627747
034721,0.951904296875,0.9551669955253601,0.7122209072113037,0.6596370339393616
034723,0.4700520932674408,0.48294597864151,0.3117245137691498,0.5809166431427002
034724,0.951171875,0.9597126245498657,0.694340705871582,0.8413590788841248
034725,0.508056640625,0.5119893550872803,0.5334192514419556,0.5613992214202881
034726,0.962158203125,0.9625805020332336,0.8420895934104919,0.8812125325202942
